400,22465.97
401,22424.13
402,22361.85
403,22305.72
404,22284.49
405,22315.73
406,22365.57
407,22385.4
408,22330.76
409,22216.37
410,22102.49
411,22049.92
412,22080.47
413,22140.63
414,22168.58
415,22118.37
416,22027.64
417,21961.51
418,21981.29
419,22086.02
420,22222.01
421,22334.23
422,22389.07
423,22397.55
424,22376.27
425,22340.51
426,22298.63
427,22256.5
428,22219.84
429,22192.31
430,22175.81
431,22172.13
432,22178.6
433,22183.13
434,22172.47
435,22137.59
436,22093.26
437,22062.5
438,22066.57
439,22096.44
440,22117.1
441,22093.11
442,22013.49
443,21917.06
444,21848.44
445,21840.89
446,21868.88
447,21887.85
448,21856.6
449,21782.86
450,21712.87
451,21693.37
452,21740.47
453,21814.68
454,21870.85
455,21873.2
456,21827.66
457,21751.86
458,21663.21
459,21576.94
460,21506.83
461,21466.31
462,21456.21
463,21458.05
464,21451.79
465,21423.45
466,21380.73
467,21336.28
468,21300.94
469,21269.22
470,21226.71
471,21159.53
472,21074.5
473,21003.55
474,20979.96
475,21017.77
476,21078.2
477,21113.57
478,21084.36
479,21004.73
480,20910.97
481,20838.28
482,20801.46
483,20796.78
484,20819.77
485,20860.7
486,20899.38
487,20914.45
488,20889.75
489,20832.57
490,20756.92
491,20676.92
492,20608.77
493,20569.92
494,20577.21
495,20622.29
496,20662.46
497,20652.83
498,20570.78
499,20459.71
500,20375.02
501,20362.87
502,20407.02
503,20464.86
504,20495.35
505,20484.11
506,20440.6
507,20375.09
508,20299.17
509,20227
510,20172.92
511,20145.54
512,20130.45
513,20107.49
514,20059.61
515,19998.04
516,19949.48
517,19939.65
518,19966.75
519,19998.54
520,20001.43
521,19957.75
522,19885.68
523,19808.17
524,19743.75
525,19689.66
526,19636.71
527,19576.24
528,19505.7
529,19426.38
530,19339.84
531,19255.03
532,19190.15
533,19163.84
534,19182.19
535,19220.23
536,19248.36
537,19241.86
538,19201.06
539,19134.46
540,19051.06
541,18965.74
542,18897.3
543,18863.95
544,18865
545,18875.96
546,18870.98
547,18836
548,18785.68
549,18738.92
550,18710.94
551,18698.79
552,18693.82
553,18687.72
554,18675.16
555,18652.67
556,18617
557,18570.91
558,18523.98
559,18486.13
560,18463.34
561,18453.15
562,18451.96
563,18454.75
564,18450.08
565,18424.86
566,18368.6
567,18293.31
568,18222.67
569,18179.52
570,18169.6
571,18182.28
572,18206.28
573,18227.87
574,18228.99
575,18191.23
576,18107.37
577,18006.57
578,17925.34
579,17893.12
580,17895.28
581,17899.87
582,17877.32
583,17828.83
584,17777.62
585,17746.84
586,17744.11
587,17757.36
588,17773.32
589,17778.77
590,17760.43
591,17705.1
592,17607.98
593,17499.45
594,17419.01
595,17400.01
596,17427.35
597,17462.62
598,17468.97
599,17436.41
600,17377.47
601,17305.36
602,17233.85
603,17177.52
604,17150.93
605,17157.98
606,17175.74
607,17177.24
608,17142.82
609,17085.76
610,17028.63
611,16991.75
612,16977.21
613,16977.93
614,16986.91
615,16998.79
616,17009.62
617,17015.51
618,17012.91
619,16998.63
620,16969.58
621,16925.34
622,16871.95
623,16816.32
624,16764.31
625,16717.39
626,16675.88
627,16640.83
628,16618.79
629,16618.72
630,16648.26
631,16696.65
632,16739.63
633,16753.27
634,16731.29
635,16688.41
636,16640.41
637,16597.24
638,16557.57
639,16518.82
640,16479.74
641,16443.31
642,16413.33
643,16392.47
644,16377.24
645,16362.14
646,16342.09
647,16316.24
648,16286.04
649,16253.02
650,16219.86
651,16190.23
652,16167.68
653,16150.6
654,16130.38
655,16098
656,16051.77
657,16005.49
658,15974.91
659,15968.93
660,15973.37
661,15969.21
662,15941.7
663,15899.55
664,15859.56
665,15836.34
666,15825.14
667,15810.68
668,15778.63
669,15730.94
670,15682.99
671,15650.18
672,15637.01
673,15634.4
674,15632.51
675,15623.86
676,15605.37
677,15574.46
678,15530.59
679,15479.11
680,15426.42
681,15378.88
682,15343.03
683,15325.39
684,15329.75
685,15340.62
686,15334.25
687,15289.53
688,15214.94
689,15137.88
690,15085.05
691,15065.29
692,15070.77
693,15093.06
694,15123.89
695,15155.23
696,15179.07
697,15185.04
698,15158.12
699,15082.82
700,14959.64
701,14835.17
702,14764.07
703,14783.3
704,14854.23
705,14918.08
706,14925.26
707,14884.14
708,14826.08
709,14780.02
710,14751.92
711,14734.64
712,14721.05
713,14706.3
714,14687.35
715,14661.44
716,14631.46
717,14606.63
718,14596.31
719,14602.64
720,14616.58
721,14628.2
722,14628.79
723,14612.22
724,14572.74
725,14511
726,14447.17
727,14404.99
728,14399.58
729,14409.08
730,14401.76
731,14352.99
732,14281.2
733,14221.07
734,14202.2
735,14210.48
736,14209.08
737,14164.2
738,14082.83
739,14000.56
740,13952.11
741,13944.49
742,13958.84
743,13975.49
744,13980.59
745,13967.36
746,13929.7
747,13872.44
748,13818.44
749,13792.04
750,13804.64
751,13839.47
752,13876.12
753,13896.93
754,13891.98
755,13852.82
756,13778.36
757,13696.27
758,13641.13
759,13638.76
760,13669.63
761,13699.45
762,13698.68
763,13670.46
764,13631.98
765,13598.8
766,13571.2
767,13540.94
768,13500.48
769,13452.02
770,13404.72
771,13367.69
772,13347.34
773,13347.65
774,13372.12
775,13412.92
776,13449.5
777,13460.93
778,13438.12
779,13388.64
780,13321.32
781,13248.17
782,13186.92
783,13155.72
784,13162.03
785,13189.77
786,13219.75
787,13236.85
788,13237.02
789,13218.13
790,13180.19
791,13130.72
792,13078.85
793,13033.32
794,13001.36
795,12989.74
796,13002.21
797,13026.17
798,13043.51
799,13039.18
800,13018.38
801,12994.74
802,12980
803,12969.81
804,12951.73
805,12914.63
806,12861.52
807,12804.01
808,12753.41
809,12715.82
810,12693.57
811,12688.5
812,12695.63
813,12704.05
814,12703.05
815,12688.94
816,12665.09
817,12635.15
818,12601.73
819,12566.25
820,12530.06
821,12495.37
822,12465.52
823,12443.91
824,12431.54
825,12425.6
826,12422.98
827,12419.92
828,12411.53
829,12392.83
830,12362.4
831,12326.48
832,12292.25
833,12262.25
834,12227.69
835,12178.09
836,12111.68
837,12051.39
838,12024.38
839,12046.02
840,12093.56
841,12136.57
842,12151.75
843,12141.85
844,12115.64
845,12081.17
846,12043.35
847,12006.28
848,11974
849,11950.43
850,11939.44
851,11943.17
852,11954.48
853,11963.12
854,11960.22
855,11945.02
856,11919.78
857,11887.19
858,11852.84
859,11823.49
860,11804.71
861,11793.09
862,11781.13
863,11762.21
864,11737
865,11709.82
866,11684.57
867,11661.2
868,11637.55
869,11611.76
870,11585.48
871,11562.42
872,11546.22
873,11539.74
874,11545.29
875,11564.15
876,11584.71
877,11586.76
878,11552.25
879,11493.92
880,11446.5
881,11442.57
882,11478.67
883,11524.05
884,11548.96
885,11548.45
886,11537.28
887,11529.92
888,11527.03
889,11517.76
890,11491.71
891,11452.64
892,11416.59
893,11399.04
894,11397.36
895,11392.63
896,11366.28
897,11318.03
898,11264.56
899,11222.83
900,11202.29
901,11205.21
902,11233
903,11274.91
904,11308.2
905,11310.63
906,11280.6
907,11237.19
908,11199.77
909,11174.43
910,11153.91
911,11130.51
912,11101.03
913,11066.85
914,11029.75
915,10996.27
916,10977.87
917,10985.44
918,11011.04
919,11027.38
920,11007.41
921,10948.99
922,10875.6
923,10811.34
924,10769.5
925,10752.36
926,10761.14
927,10783.51
928,10793.54
929,10766.12
930,10706.31
931,10649.03
932,10628.82
933,10648.27
934,10678.95
935,10692.2
936,10678.66
937,10647.18
938,10607.45
939,10571.91
940,10555.55
941,10572.01
942,10609.32
943,10632.8
944,10609.5
945,10547.72
946,10490.83
947,10480.41
948,10512.65
949,10546.82
950,10543.78
951,10502.84
952,10453.15
953,10422.82
954,10416.38
955,10420.92
956,10423.58
957,10416.53
958,10395.44
959,10357.36
960,10314.94
961,10290.97
962,10305.41
963,10346
964,10380.82
965,10381.38
966,10355.24
967,10330.45
968,10331.54
969,10349.82
970,10359.07
971,10336.64
972,10289.43
973,10238.65
974,10203.23
975,10184.73
976,10176.98
977,10173.92
978,10170.31
979,10161.24
980,10142.86
981,10117.35
982,10089.13
983,10062.38
984,10040.05
985,10024.66
986,10018.57
987,10023.22
988,10039.84
989,10067.62
990,10097.39
991,10117.75
992,10120.33
993,10107.88
994,10085.72
995,10058.36
996,10027.72
997,9995.131
998,9962.621
999,9934.13
1000,9913.923
1001,9903.177
1002,9895.251
1003,9882.326
1004,9861.073
1005,9838.116
1006,9821.393
1007,9815.743
1008,9811.775
1009,9796.031
1010,9760.809
1011,9721.387
1012,9698.759
1013,9706.312
1014,9731.192
1015,9754.909
1016,9764.151
1017,9760.884
1018,9749.905
1019,9736.4
1020,9726.568
1021,9726.729
1022,9738.241
1023,9751.72
1024,9756.451
1025,9748.029
1026,9733.666
1027,9721.758
1028,9717.331
1029,9720.174
1030,9729.477
1031,9739.094
1032,9735.811
1033,9706.557
1034,9654.974
1035,9603.281
1036,9573.743
1037,9570.871
1038,9582.694
1039,9597.036
1040,9607.66
1041,9612.916
1042,9611.869
1043,9610.312
1044,9618.31
1045,9643.927
1046,9677.168
1047,9698.725
1048,9693.166
1049,9671.786
1050,9656.988
1051,9665.643
1052,9685.343
1053,9694.05
1054,9677.232
1055,9651.163
1056,9640.026
1057,9658.905
1058,9693.896
1059,9725.384
1060,9738.685
1061,9731.284
1062,9702.556
1063,9656.217
1064,9604.357
1065,9559.905
1066,9531.693
1067,9522.443
1068,9534.189
1069,9563.425
1070,9600.2
1071,9634.566
1072,9663.163
1073,9688.562
1074,9713.533
1075,9740.701
1076,9772.589
1077,9811.763
1078,9861.328
1079,9924.662
1080,10003.03
1081,10084.33
1082,10151.21
1083,10190
1084,10203.82
1085,10200.55
1086,10188.2
1087,10175.16
1088,10169.91
1089,10177.66
1090,10195.96
1091,10221.21
1092,10246.24
1093,10257.74
1094,10242.12
1095,10198.67
1096,10143.03
1097,10091.12
1098,10044.59
1099,9991.844
1100,9922.186
1101,9842.07
1102,9769.493
1103,9720.941
1104,9699.262
1105,9700.75
1106,9719.985
1107,9742.527
1108,9750.92
1109,9735.197
1110,9712.627
1111,9706.602
1112,9727.505
1113,9753.476
1114,9758.028
1115,9734.616
1116,9710.733
1117,9716.306
1118,9753.545
1119,9791.69
1120,9799.834
1121,9776.163
1122,9742.934
1123,9720.732
1124,9706.775
1125,9685.012
1126,9642.765
1127,9589.076
1128,9541.231
1129,9509.886
1130,9479.397
1131,9427.666
1132,9345.071
1133,9253.825
1134,9180.931
1135,9139.14
1136,9117.253
1137,9102.09
1138,9089.037
1139,9083.057
1140,9088.663
1141,9096.704
1142,9087.857
1143,9047.309
1144,8998.723
1145,8984.463
1146,9033.259
1147,9106.345
1148,9144.288
1149,9112.111
1150,9048.618
1151,9006.177
1152,9007.002
1153,9016.371
1154,8994.283
1155,8935.17
1156,8875.011
1157,8849.614
1158,8855.063
1159,8856.717
1160,8824.139
1161,8767.362
1162,8716.097
1163,8693.695
1164,8693.05
1165,8698.102
1166,8695.975
1167,8682.599
1168,8655.531
1169,8620.843
1170,8598.895
1171,8610.386
1172,8650.774
1173,8689.303
1174,8696.604
1175,8673.024
1176,8637.911
1177,8608.689
1178,8589.14
1179,8577.851
1180,8572.73
1181,8569.386
1182,8562.933
1183,8549.287
1184,8525.969
1185,8490.987
1186,8452.082
1187,8428.561
1188,8438.648
1189,8476.963
1190,8521.321
1191,8551.201
1192,8559.712
1193,8545.599
1194,8510.794
1195,8468.811
1196,8435.773
1197,8422.487
1198,8428.958
1199,8453.618
1200,8486.503
1201,8507.824
1202,8499.211
1203,8466.808
1204,8433.332
1205,8418.193
1206,8418.541
1207,8423.123
1208,8423.901
1209,8423.241
1210,8425.551
1211,8431.264
1212,8433.888
1213,8426.658
1214,8412.086
1215,8401.81
1216,8406.629
1217,8425.93
1218,8452.862
1219,8480.006
1220,8497.638
1221,8495.394
1222,8471.69
1223,8445.896
1224,8439.976
1225,8457.981
1226,8480.94
1227,8489.926
1228,8486.607
1229,8487.156
1230,8503.741
1231,8522.758
1232,8521.035
1233,8487.575
1234,8447.433
1235,8431.957
1236,8451.426
1237,8483.907
1238,8505.703
1239,8508.687
1240,8497.427
1241,8476.684
1242,8449.949
1243,8420.176
1244,8393.091
1245,8383.547
1246,8407.994
1247,8463.058
1248,8512.762
1249,8520.118
1250,8484.074
1251,8434.246
1252,8398.774
1253,8388.175
1254,8405.329
1255,8448.563
1256,8501.342
1257,8544.126
1258,8561.25
1259,8543.223
1260,8483.162
1261,8407.379
1262,8369.049
1263,8409.55
1264,8488.716
1265,8533.935
1266,8501.872
1267,8435.163
1268,8391.432
1269,8395.951
1270,8428.652
1271,8466.61
1272,8493.873
1273,8499.329
1274,8476.739
1275,8445.007
1276,8431.21
1277,8446.401
1278,8464.067
1279,8453.452
1280,8416.522
1281,8391.756
1282,8413.656
1283,8462.466
1284,8489.358
1285,8463.414
1286,8423.262
1287,8423.685
1288,8481.198
1289,8547.073
1290,8569.195
1291,8544.56
1292,8509.731
1293,8496.87
1294,8505.066
1295,8521.265
1296,8535.551
1297,8545.983
1298,8551.835
1299,8552.653
1300,8548.273
1301,8539.148
1302,8531.001
1303,8532.311
1304,8548.678
1305,8575.399
1306,8605.5
1307,8632.044
1308,8648.159
1309,8647.772
1310,8634.947
1311,8620.752
1312,8614.891
1313,8619.931
1314,8636.3
1315,8659.916
1316,8677.963
1317,8677.48
1318,8660.935
1319,8644.013
1320,8640.817
1321,8653.316
1322,8679.021
1323,8711.846
1324,8737.32
1325,8740.622
1326,8727.145
1327,8722.571
1328,8748.005
1329,8785.781
1330,8801.639
1331,8778.377
1332,8744.662
1333,8735.902
1334,8761.641
1335,8802.614
1336,8839.165
1337,8860.615
1338,8860.502
1339,8839.382
1340,8817.988
1341,8819.875
1342,8842.686
1343,8853.752
1344,8824.74
1345,8776.89
1346,8755.509
1347,8785.526
1348,8831.735
1349,8849.143
1350,8829.777
1351,8808.734
1352,8818.113
1353,8846.848
1354,8863.476
1355,8848.787
1356,8818.135
1357,8792.546
1358,8784.218
1359,8795.684
1360,8827.899
1361,8874.038
1362,8923.885
1363,8965.116
1364,8980.258
1365,8952.596
1366,8900.518
1367,8876.594
1368,8923.118
1369,9010.944
1370,9084.236
1371,9109.716
1372,9102.176
1373,9082.274
1374,9065.779
1375,9064.449
1376,9085.816
1377,9117.389
1378,9140.712
1379,9147.681
1380,9147.875
1381,9151.516
1382,9155.861
1383,9149.702
1384,9126.227
1385,9095.302
1386,9070.284
1387,9050.565
1388,9017.311
1389,8956.431
1390,8902.594
1391,8914.241
1392,9011.156
1393,9111.479
1394,9120.982
1395,9035.353
1396,8935.608
1397,8891.345
1398,8890.787
1399,8894.847
1400,8882.655
1401,8866.122
1402,8859.386
1403,8862.327
1404,8865.526
1405,8862.714
1406,8859.147
1407,8862.379
1408,8873.155
1409,8884.178
1410,8889.049
1411,8890.81
1412,8896.42
1413,8910.062
1414,8929.986
1415,8953.16
1416,8969.257
1417,8962.5
1418,8924.957
1419,8879.688
1420,8856.714
1421,8863.744
1422,8880.233
1423,8886.252
1424,8879.586
1425,8865.736
1426,8853.194
1427,8856.753
1428,8889.783
1429,8934.46
1430,8950.264
1431,8912.986
1432,8859.984
1433,8841.502
1434,8869.194
1435,8909.773
1436,8932.018
1437,8933.818
1438,8924.18
1439,8910.076
1440,8894.699
1441,8881.152
1442,8875.91
1443,8887.508
1444,8918.929
1445,8956.992
1446,8986.009
1447,8999.073
1448,8997.355
1449,8983.971
1450,8969.515
1451,8966.578
1452,8980.927
1453,9009.065
1454,9045.576
1455,9076.241
1456,9083.116
1457,9064.161
1458,9048.646
1459,9066.806
1460,9117.85
1461,9181.636
1462,9236.819
1463,9259.693
1464,9228.558
1465,9166.868
1466,9137.273
1467,9181.151
1468,9247.864
1469,9265.255
1470,9222.096
1471,9178.642
1472,9186.316
1473,9222.431
1474,9238.66
1475,9217.537
1476,9189.635
1477,9185.657
1478,9204.31
1479,9229.256
1480,9245.538
1481,9241.25
1482,9207.337
1483,9161.699
1484,9138.561
1485,9151.333
1486,9158.85
1487,9115.597
1488,9041.642
1489,9006.655
1490,9049.669
1491,9105.538
1492,9091.943
1493,9010.453
1494,8939.695
1495,8940.48
1496,8989.88
1497,9044.744
1498,9084.226
1499,9111.776
1500,9130.505
1501,9135.97
1502,9121.853
1503,9096.174
1504,9085.024
1505,9109.242
1506,9153.267
1507,9188.99
1508,9198.859
1509,9180.409
1510,9136.407
1511,9095.686
1512,9096.874
1513,9142.578
1514,9178.684
1515,9156.417
1516,9101.585
1517,9071.931
1518,9093.27
1519,9136.854
1520,9171.826
1521,9192.529
1522,9204.963
1523,9216.379
1524,9236.141
1525,9270.681
1526,9300.914
1527,9295.678
1528,9251.395
1529,9215.384
1530,9232.881
1531,9286.027
1532,9326.312
1533,9331.549
1534,9328.589
1535,9345.394
1536,9375.547
1537,9396.104
1538,9397.133
1539,9392.409
1540,9395.425
1541,9397.761
1542,9380.98
1543,9345.536
1544,9324.46
1545,9347.239
1546,9393.668
1547,9422.071
1548,9420.032
1549,9422.223
1550,9462.171
1551,9537.292
1552,9630.165
1553,9708.643
1554,9719.261
1555,9625.653
1556,9501.048
1557,9455.989
1558,9513.151
1559,9581.226
1560,9581.08
1561,9533.482
1562,9489.521
1563,9477.455
1564,9499.828
1565,9552.235
1566,9607.037
1567,9631.77
1568,9622.871
1569,9604.404
1570,9597.467
1571,9608.992
1572,9641.83
1573,9681.903
1574,9701.734
1575,9689.845
1576,9679.562
1577,9707.692
1578,9762.512
1579,9801.383
1580,9802.838
1581,9791.995
1582,9796.728
1583,9816.657
1584,9837.346
1585,9849.136
1586,9850.5
1587,9842.518
1588,9837.504
1589,9851.617
1590,9884.316
1591,9914.063
1592,9924.856
1593,9931.309
1594,9955.586
1595,10000.87
1596,10052.56
1597,10096.84
1598,10124.68
1599,10128.87
1600,10113.49
1601,10090.4
1602,10072.61
1603,10075.27
1604,10108.87
1605,10144.06
1606,10133.19
1607,10071.9
1608,10020.9
1609,10027.99
1610,10046.3
1611,10002.2
1612,9911.027
1613,9879.472
1614,9970.907
1615,10091.99
1616,10126.55
1617,10080.76
1618,10044.56
1619,10066.81
1620,10106.64
1621,10119.56
1622,10117.18
1623,10135.07
1624,10172.43
1625,10179.9
1626,10123.5
1627,10050.25
1628,10025.28
1629,10049.58
1630,10070.13
1631,10053.19
1632,10018.17
1633,9989.375
1634,9961.758
1635,9915.698
1636,9862.834
1637,9861.753
1638,9952.194
1639,10065.84
1640,10107.25
1641,10075.28
1642,10052.82
1643,10081.54
1644,10088.43
1645,9997.449
1646,9867.714
1647,9825.966
1648,9908.355
1649,10018.73
1650,10069.6
1651,10058.75
1652,10008.67
1653,9961.778
1654,9976.568
1655,10068.98
1656,10156.84
1657,10159.47
1658,10106.79
1659,10075.54
1660,10086.63
1661,10093.03
1662,10065.68
1663,10052.14
1664,10109.49
1665,10211.29
1666,10278.13
1667,10275.02
1668,10245.12
1669,10227.88
1670,10204.24
1671,10140.25
1672,10068.13
1673,10077.89
1674,10199.75
1675,10319.04
1676,10320.92
1677,10238.28
1678,10165.5
1679,10143.62
1680,10152.8
1681,10172.48
1682,10189.95
1683,10195.44
1684,10192.93
1685,10193.85
1686,10208.69
1687,10246.49
1688,10305.15
1689,10340.92
1690,10307.62
1691,10247.25
1692,10257.76
1693,10353.01
1694,10408.16
1695,10331.29
1696,10234.29
1697,10272.27
1698,10413.74
1699,10491.8
1700,10430.75
1701,10325.88
1702,10273.49
1703,10285.69
1704,10347.67
1705,10423.77
1706,10462.18
1707,10437.84
1708,10377.52
1709,10312.66
1710,10268.23
1711,10265.65
1712,10300.57
1713,10348.36
1714,10396.42
1715,10456.13
1716,10531.13
1717,10573.85
1718,10526.53
1719,10416.12
1720,10333.76
1721,10327.46
1722,10364.96
1723,10412.69
1724,10469.61
1725,10541.69
1726,10607
1727,10624.64
1728,10584.79
1729,10528.14
1730,10490.33
1731,10468.73
1732,10452.11
1733,10437.77
1734,10428.18
1735,10428.29
1736,10446.39
1737,10480.54
1738,10495.27
1739,10456.23
1740,10394.77
1741,10372.88
1742,10406.45
1743,10460.27
1744,10504.01
1745,10526.24
1746,10523.37
1747,10522.24
1748,10558.46
1749,10619.89
1750,10654.12
1751,10631.93
1752,10569.42
1753,10493.74
1754,10458.03
1755,10513.75
1756,10615.93
1757,10662.12
1758,10631.92
1759,10614.01
1760,10661.65
1761,10703.83
1762,10665.29
1763,10596.33
1764,10595.3
1765,10673.06
1766,10761.95
1767,10805.38
1768,10772.98
1769,10663.34
1770,10584.31
1771,10653.32
1772,10793.92
1773,10822.68
1774,10709.31
1775,10606.25
1776,10607.63
1777,10637.04
1778,10613.23
1779,10571.21
1780,10579.84
1781,10629.66
1782,10656.28
1783,10646.25
1784,10660.67
1785,10733.58
1786,10801.81
1787,10798.56
1788,10750.71
1789,10719.56
1790,10718.69
1791,10723.45
1792,10723.34
1793,10731.89
1794,10758.92
1795,10795.51
1796,10829.16
1797,10848.74
1798,10844.41
1799,10818.49
1800,10783.26
1801,10745.61
1802,10703.29
1803,10658.67
1804,10630.86
1805,10639.94
1806,10689.7
1807,10774.81
1808,10849.84
1809,10839.77
1810,10745.01
1811,10676.32
1812,10705.41
1813,10770.83
1814,10798.18
1815,10770.24
1816,10694.31
1817,10634.06
1818,10686.76
1819,10821.81
1820,10853.66
1821,10708.99
1822,10586.44
1823,10655.36
1824,10797.36
1825,10837.94
1826,10792.55
1827,10769.84
1828,10791.56
1829,10798.92
1830,10770.63
1831,10752.01
1832,10778.86
1833,10839.16
1834,10904.79
1835,10907.31
1836,10777.42
1837,10604.23
1838,10572.8
1839,10696.39
1840,10795.05
1841,10777.73
1842,10746.36
1843,10781.87
1844,10812.85
1845,10757.88
1846,10688.52
1847,10725.93
1848,10839.6
1849,10896.53
1850,10860.03
1851,10808.61
1852,10794.14
1853,10802.27
1854,10814.24
1855,10822.91
1856,10823.12
1857,10806.32
1858,10765.69
1859,10730.13
1860,10749.72
1861,10820.73
1862,10881.79
1863,10892.2
1864,10852.54
1865,10782.32
1866,10744.21
1867,10785.48
1868,10834.98
1869,10799.17
1870,10719.17
1871,10701.26
1872,10752.28
1873,10795.49
1874,10790.24
1875,10747.88
1876,10698.2
1877,10702.49
1878,10790.22
1879,10864.87
1880,10827.51
1881,10727.53
1882,10660.42
1883,10644.97
1884,10656.07
1885,10674.35
1886,10686.66
1887,10705.1
1888,10775.75
1889,10887.18
1890,10901.69
1891,10740.4
1892,10573.93
1893,10578.34
1894,10680.59
1895,10739.31
1896,10737.39
1897,10719.71
1898,10706.06
1899,10695.97
1900,10672.57
1901,10601.69
1902,10506.02
1903,10505.5
1904,10636.75
1905,10702.23
1906,10559.76
1907,10421.21
1908,10523.9
1909,10750.15
1910,10874.41
1911,10875
1912,10836.38
1913,10783.34
1914,10695.57
1915,10612.24
1916,10637.93
1917,10765
1918,10804.44
1919,10677.41
1920,10588.81
1921,10682.79
1922,10778.87
1923,10691.91
1924,10529.77
1925,10465.92
1926,10523.36
1927,10657.21
1928,10781.31
1929,10793.61
1930,10735.45
1931,10759.51
1932,10841.41
1933,10759.47
1934,10493.5
1935,10342.49
1936,10454.06
1937,10609.73
1938,10629.85
1939,10571.96
1940,10524.94
1941,10537.62
1942,10625.75
1943,10678.88
1944,10576.32
1945,10437.76
1946,10466
1947,10591.73
1948,10595.44
1949,10462.86
1950,10340.38
1951,10331.46
1952,10487.81
1953,10715.61
1954,10736.94
1955,10497.9
1956,10341.24
1957,10449.57
1958,10576.38
1959,10532.45
1960,10446.17
1961,10446.02
1962,10460.55
1963,10402.98
1964,10327.25
1965,10313.62
1966,10351.67
1967,10399.58
1968,10435.64
1969,10447.88
1970,10427.85
1971,10372.34
1972,10321.71
1973,10340.98
1974,10369.66
1975,10245.43
1976,10038.98
1977,10064.95
1978,10331.24
1979,10441.16
1980,10259.13
1981,10091.97
1982,10119.71
1983,10218.22
1984,10273.9
1985,10269.21
1986,10220.6
1987,10200.38
1988,10253.24
1989,10308.01
1990,10296.24
1991,10245.1
1992,10191.78
1993,10118.32
1994,10011.65
1995,9963.454
1996,10064.43
1997,10189.19
1998,10161.97
1999,10034.93
2000,9946.859
2001,9927.056
2002,9949.919
2003,9988.614
2004,10018.33
2005,10043.45
2006,10082.73
2007,10099.32
2008,10024.16
2009,9906.522
2010,9881.598
2011,9936.351
2012,9932.624
2013,9863.483
2014,9846.705
2015,9881.07
2016,9840.65
2017,9733.99
2018,9724.49
2019,9842.213
2020,9945.516
2021,9948.06
2022,9850.921
2023,9707.217
2024,9633.308
2025,9673.981
2026,9760.32
2027,9820.264
2028,9792.559
2029,9691.707
2030,9654.806
2031,9729.18
2032,9787.466
2033,9749.718
2034,9652.891
2035,9553.455
2036,9520.924
2037,9576.061
2038,9643.668
2039,9670.924
2040,9669.973
2041,9636.924
2042,9521.47
2043,9321.552
2044,9143.032
2045,9059.735
2046,9054.152
2047,9106.894
2048,9216.776
2049,9350.299
2050,9405.022
2051,9318.901
2052,9127.315
2053,8929.454
2054,8924.655
2055,9135.013
2056,9223.964
2057,9047.255
2058,8891.247
2059,8924.551
2060,9020.949
2061,9074.358
2062,9066.741
2063,9007.127
2064,8934.992
2065,8896.818
2066,8943.694
2067,9033.443
2068,8988.17
2069,8767.176
2070,8534.936
2071,8398.719
2072,8369.82
2073,8415.708
2074,8460.614
2075,8492.78
2076,8571.979
2077,8671.254
2078,8676.075
2079,8607.003
2080,8607.553
2081,8650.25
2082,8566.988
2083,8376.623
2084,8241.541
2085,8226.409
2086,8316.854
2087,8418.844
2088,8403.841
2089,8291.237
2090,8182.766
2091,8167.004
2092,8297.799
2093,8429.873
2094,8376.165
2095,8226.61
2096,8139.8
2097,8084.088
2098,7990.355
2099,7898.195
2100,7864.365
2101,7896.588
2102,7977.146
2103,8044.356
2104,8045.45
2105,7974.788
2106,7863.665
2107,7807.478
2108,7829.461
2109,7803.547
2110,7677.762
2111,7541.237
2112,7495.418
2113,7634.381
2114,7856.393
2115,7863.746
2116,7648.103
2117,7456.576
2118,7363.297
2119,7312.931
2120,7297.927
2121,7336.596
2122,7409.981
2123,7480.237
2124,7505.787
2125,7454.157
2126,7344.249
2127,7209.554
2128,7079.605
2129,6989.922
2130,6995.621
2131,7110.92
2132,7249.34
2133,7309.307
2134,7191.131
2135,6962.333
2136,6909.332
2137,7043.136
2138,7079.92
2139,7028.137
2140,7121.635
2141,7251.387
2142,7133.167
2143,6881.339
2144,6757.324
2145,6737.584
2146,6717.203
2147,6687.6
2148,6667.478
2149,6680.31
2150,6702.94
2151,6606.632
2152,6401.208
2153,6346.304
2154,6514.604
2155,6720.577
2156,6822.152
2157,6745.225
2158,6583.138
2159,6508.743
2160,6438.896
2161,6231.496
2162,6111.797
2163,6289.903
2164,6434.22
2165,6266.313
2166,5989.701
2167,5811.882
2168,5798.844
2169,5881.152
2170,5845.077
2171,5734.594
2172,5808.474
2173,5932.354
2174,5782.981
2175,5581.771
2176,5670.821
2177,5776.787
2178,5600.362
2179,5356.672
2180,5254.992
2181,5273.319
2182,5377.84
2183,5555.356
2184,5681.375
2185,5543.985
2186,5221.976
2187,4968.9
2188,4873.538
2189,4925.637
2190,5003.331
2191,5026.747
2192,5128.729
2193,5278.227
2194,5080.094
2195,4594.296
2196,4449.551
2197,4650.145
2198,4719.747
2199,4654.871
2200,4663.086
2201,4714.778
2202,4736.957
2203,4770.597
2204,4797.352
2205,4640.746
2206,4329.229
2207,4159.663
2208,4193.367
2209,4294.03
2210,4384.102
2211,4421.759
2212,4380.773
2213,4286.696
2214,4298.781
2215,4397.398
2216,4225.03
2217,3854.501
2218,3815.223
2219,4083.983
2220,4286.816
2221,4270.016
2222,4045.289
2223,3897.985
2224,3991.23
2225,4096.829
2226,4054.769
2227,3864.682
2228,3669.57
2229,3665.544
2230,3686.584
2231,3504.217
2232,3300.042
2233,3256.58
2234,3323.102
2235,3391.441
2236,3333.016
2237,3210.125
2238,3205.095
2239,3301.069
2240,3397.141
2241,3411.822
2242,3328.854
2243,3256.628
2244,3264.555
2245,3347.808
2246,3380.664
2247,3199.582
2248,2887.561
2249,2616.567
2250,2545.964
2251,2667.213
2252,2705.064
2253,2609.485
2254,2545.482
2255,2501.467
2256,2411.846
2257,2391.087
2258,2502.521
2259,2589.59
2260,2549.803
2261,2394.629
2262,2298.114
2263,2449.81
2264,2566.967
2265,2406.755
2266,2266.403
2267,2275.433
2268,2216.606
2269,2111.91
2270,2136.921
2271,2174.841
2272,2067.483
2273,1882.067
2274,1764.872
2275,1892.542
2276,2045.116
2277,1811.71
2278,1625.935
2279,1923.113
2280,2085.777
2281,1802.529
2282,1520.052
2283,1460.432
2284,1589.903
2285,1680.271
2286,1579.049
2287,1555.132
2288,1720.673
2289,1868.322
2290,1836.785
2291,1591.209
2292,1513.455
2293,1810.177
2294,1933.016
2295,1649.659
2296,1235.042
2297,983.6222
2298,1052.328
2299,1042.37
2300,788.9883
