400,28205.08
401,28220.26
402,28149.89
403,28046.75
404,27970.5
405,27964.76
406,27999.52
407,28023.56
408,27989.63
409,27906.74
410,27827.19
411,27803.81
412,27855.87
413,27937.81
414,27996.85
415,27991.72
416,27941.33
417,27884.42
418,27857.7
419,27865.01
420,27882.34
421,27884.97
422,27862.87
423,27836.66
424,27830.71
425,27862.22
426,27907.95
427,27930.49
428,27894.87
429,27807.96
430,27713.42
431,27655.85
432,27655.52
433,27681
434,27694.39
435,27665.68
436,27608.77
437,27552.87
438,27525.74
439,27531.22
440,27552.58
441,27572.58
442,27580.69
443,27579.97
444,27575.12
445,27567.86
446,27544.53
447,27486.49
448,27377.37
449,27234.99
450,27104.07
451,27029.51
452,27028.58
453,27068.47
454,27111.22
455,27124.59
456,27101.71
457,27042.88
458,26949.88
459,26842.82
460,26754.26
461,26716.33
462,26731.96
463,26759.45
464,26753.5
465,26684.89
466,26582.35
467,26487.72
468,26438.52
469,26433.22
470,26448.91
471,26462.8
472,26460.13
473,26435.9
474,26385.72
475,26312.2
476,26237.25
477,26185.95
478,26177.53
479,26192
480,26193.29
481,26147.5
482,26062.48
483,25984.17
484,25959.46
485,26004.15
486,26072.59
487,26112.07
488,26081.5
489,25992.36
490,25871.24
491,25744.02
492,25630.07
493,25544.51
494,25501.9
495,25499.09
496,25508.82
497,25502.22
498,25461.77
499,25403.35
500,25348.94
501,25317.21
502,25304.12
503,25296.13
504,25280.39
505,25256.9
506,25237.11
507,25232.72
508,25243.65
509,25248.16
510,25222.29
511,25151.07
512,25055.55
513,24965.79
514,24908.05
515,24874.61
516,24839.17
517,24776.17
518,24682.09
519,24577.84
520,24485.44
521,24420.45
522,24383.87
523,24374.7
524,24387.82
525,24397.68
526,24372.63
527,24285.44
528,24157.32
529,24040.02
530,23984.37
531,24000.03
532,24045.65
533,24076.96
534,24065.4
535,24021.21
536,23960.49
537,23897.45
538,23836.62
539,23779.39
540,23726.97
541,23678.58
542,23632.12
543,23585.55
544,23537.84
545,23489.31
546,23440.39
547,23392.89
548,23352.09
549,23323.81
550,23309.58
551,23289.71
552,23237.91
553,23132.86
554,23006.42
555,22923.11
556,22945.27
557,23064.37
558,23190.28
559,23229.07
560,23137.4
561,22981.23
562,22840.51
563,22776.86
564,22774.29
565,22796.12
566,22808.3
567,22798.46
568,22765.59
569,22709.22
570,22638.47
571,22571.65
572,22527.21
573,22513.15
574,22519.44
575,22534.3
576,22546
577,22542.94
578,22513.54
579,22449.53
580,22363.1
581,22274.52
582,22202.86
583,22152.54
584,22117.48
585,22091.41
586,22068.64
587,22044.26
588,22013.42
589,21974.06
590,21930.41
591,21887.53
592,21849.56
593,21816.91
594,21789.03
595,21764.56
596,21736.17
597,21693.59
598,21627.69
599,21547.9
600,21479.32
601,21446.93
602,21452.08
603,21462.08
604,21441.82
605,21373.7
606,21283.95
607,21205.49
608,21164.6
609,21157.81
610,21173.22
611,21198.87
612,21221.84
613,21228.73
614,21206.93
615,21156.23
616,21086.92
617,21009.64
618,20937.52
619,20887.25
620,20875.61
621,20904.81
622,20942.26
623,20950.48
624,20902.95
625,20818.28
626,20726.68
627,20655.71
628,20614.41
629,20603.51
630,20622.63
631,20656.71
632,20679.86
633,20666.79
634,20616.64
635,20557.56
636,20519.05
637,20512.44
638,20514.04
639,20496.31
640,20442.2
641,20367.92
642,20296.27
643,20246.53
644,20219.52
645,20209.84
646,20211.25
647,20209.22
648,20184.7
649,20120.21
650,20026.2
651,19937.19
652,19887.69
653,19882.6
654,19886.92
655,19863.15
656,19795.38
657,19713.34
658,19652.47
659,19634.82
660,19637.23
661,19627.04
662,19579.65
663,19514.76
664,19467.28
665,19467.36
666,19502.47
667,19536.91
668,19536.71
669,19497.38
670,19438.83
671,19381.2
672,19330.87
673,19277.14
674,19208.44
675,19126.4
676,19057.44
677,19030.61
678,19056.96
679,19096.13
680,19098.72
681,19031.13
682,18930.07
683,18851.82
684,18842.87
685,18882.3
686,18920.25
687,18910.57
688,18848.68
689,18756.62
690,18656.68
691,18569.47
692,18514.05
693,18508.79
694,18549.22
695,18600.09
696,18624.27
697,18599.73
698,18534.02
699,18438.06
700,18329.39
701,18244.8
702,18224.37
703,18290.08
704,18386.46
705,18437.38
706,18381.54
707,18251.32
708,18116.14
709,18039.13
710,18023.29
711,18037.28
712,18050.93
713,18056.09
714,18062.31
715,18078.93
716,18097.42
717,18089.33
718,18025.84
719,17910.63
720,17797.64
721,17744.63
722,17773.47
723,17828.9
724,17845.86
725,17786.13
726,17692.47
727,17622.79
728,17616.92
729,17637.45
730,17626.35
731,17539.1
732,17412.91
733,17315.85
734,17306.54
735,17362.06
736,17417.07
737,17411.16
738,17349.57
739,17283.69
740,17263.35
741,17291.95
742,17329.27
743,17334.36
744,17291.08
745,17214.16
746,17120.23
747,17028.79
748,16964.16
749,16950.87
750,16992.19
751,17045.07
752,17060.56
753,17010.35
754,16925.98
755,16849.67
756,16812.6
757,16803.18
758,16799.49
759,16783.6
760,16758.38
761,16733.52
762,16716.98
763,16705.11
764,16689.25
765,16661.68
766,16623.59
767,16581.1
768,16540.22
769,16504.94
770,16477.78
771,16460.99
772,16451.39
773,16441.03
774,16422.01
775,16392.32
776,16356.62
777,16319.9
778,16287
779,16262.6
780,16251.24
781,16250.83
782,16247.52
783,16226.41
784,16183.31
785,16137.76
786,16112.33
787,16117.29
788,16128.85
789,16117.45
790,16064.75
791,15991.11
792,15925.21
793,15888.8
794,15873.79
795,15864.01
796,15846.66
797,15827.1
798,15816.79
799,15824.09
800,15836.03
801,15830.91
802,15790.08
803,15721.15
804,15644.91
805,15580.83
806,15533.81
807,15499.88
808,15475.19
809,15459.06
810,15453.14
811,15458.62
812,15467.83
813,15465.54
814,15437.02
815,15383.18
816,15320.72
817,15266.71
818,15230.5
819,15212.43
820,15212.11
821,15222
822,15224.7
823,15202.38
824,15151.41
825,15090.77
826,15041.28
827,15012.64
828,14994.07
829,14972.66
830,14942.17
831,14910.59
832,14887.67
833,14877.99
834,14873.36
835,14863.71
836,14842.07
837,14810.21
838,14771.42
839,14729.54
840,14690.25
841,14659.56
842,14640.14
843,14622.23
844,14593.19
845,14545.97
846,14497.02
847,14468.94
848,14475.88
849,14491.87
850,14479
851,14410.7
852,14321.04
853,14264.37
854,14282.68
855,14344.19
856,14389.52
857,14368.93
858,14296.9
859,14214.51
860,14158.32
861,14131.16
862,14120.48
863,14114.81
864,14112.05
865,14114.81
866,14124.46
867,14130.48
868,14115.97
869,14066.53
870,13993.24
871,13922.16
872,13877.8
873,13866.43
874,13882.84
875,13920.69
876,13961.38
877,13978.14
878,13946.72
879,13877.46
880,13805.43
881,13763.87
882,13753.43
883,13750.12
884,13731.01
885,13698.57
886,13675.5
887,13683.32
888,13715.79
889,13743.46
890,13737.76
891,13696.73
892,13641.59
893,13593.68
894,13564.09
895,13554.58
896,13566.04
897,13588.87
898,13603.55
899,13591.11
900,13549.62
901,13493.51
902,13437.76
903,13396.03
904,13380.73
905,13403.15
906,13450.97
907,13488.29
908,13479.8
909,13425.81
910,13362.76
911,13327.28
912,13325.13
913,13330.4
914,13316.65
915,13277.34
916,13226.39
917,13178.35
918,13141.14
919,13115.83
920,13102.89
921,13095.18
922,13077.8
923,13036.36
924,12975.54
925,12919.5
926,12892.15
927,12893.34
928,12898.71
929,12883.88
930,12846.31
931,12805.01
932,12779.15
933,12771.93
934,12771.2
935,12764.56
936,12747.16
937,12721.34
938,12689.88
939,12659.41
940,12640.1
941,12641.21
942,12653.46
943,12651.22
944,12610.14
945,12537.07
946,12465.39
947,12427.52
948,12428.82
949,12452.61
950,12481.73
951,12500.57
952,12494.8
953,12452.04
954,12386.56
955,12332.25
956,12320.39
957,12344.25
958,12370.64
959,12368.74
960,12340.61
961,12309.85
962,12298.19
963,12304.37
964,12313.02
965,12310.1
966,12295.92
967,12279.05
968,12267.23
969,12260.58
970,12255.15
971,12246.87
972,12230.85
973,12201.8
974,12156.5
975,12107.1
976,12072.57
977,12067.24
978,12075.01
979,12067.42
980,12023.06
981,11962.21
982,11920.43
983,11925.23
984,11961.71
985,12000.97
986,12018.71
987,12012.42
988,11986.07
989,11944.82
990,11898.99
991,11860.27
992,11836.63
993,11822.35
994,11808.5
995,11788.78
996,11765.29
997,11741.9
998,11721.23
999,11702.33
1000,11683.61
1001,11663.84
1002,11642.63
1003,11619.73
1004,11596.21
1005,11576
1006,11563.4
1007,11561.16
1008,11564.82
1009,11567.9
1010,11565.96
1011,11562.79
1012,11564.25
1013,11572.36
1014,11575.85
1015,11560.6
1016,11520.32
1017,11471.91
1018,11436.47
1019,11425.75
1020,11427.63
1021,11426.38
1022,11414.85
1023,11404.56
1024,11409.35
1025,11431.77
1026,11453.57
1027,11454.53
1028,11430.17
1029,11400.56
1030,11387.39
1031,11392.74
1032,11392.8
1033,11363.04
1034,11306.57
1035,11257.29
1036,11248.81
1037,11277.88
1038,11307.07
1039,11300.22
1040,11258.94
1041,11214
1042,11194.54
1043,11203.48
1044,11227.07
1045,11251.93
1046,11270.08
1047,11276.34
1048,11266.56
1049,11243.34
1050,11212.08
1051,11179.42
1052,11158.44
1053,11164.3
1054,11203.49
1055,11246.77
1056,11255.74
1057,11209.84
1058,11145.31
1059,11109.56
1060,11125.48
1061,11155.44
1062,11152.92
1063,11100.13
1064,11034.4
1065,10998.74
1066,11009.11
1067,11041.15
1068,11067.77
1069,11079.23
1070,11085.95
1071,11099.11
1072,11123.79
1073,11159.52
1074,11205.19
1075,11253.71
1076,11293.88
1077,11316.42
1078,11329.98
1079,11352.59
1080,11398.95
1081,11462.09
1082,11526.57
1083,11577.67
1084,11603.9
1085,11594.69
1086,11549.53
1087,11500.88
1088,11487.87
1089,11526.45
1090,11577.53
1091,11594.35
1092,11554.02
1093,11474.93
1094,11379.52
1095,11288.6
1096,11220.95
1097,11194.06
1098,11202.3
1099,11218.62
1100,11216.81
1101,11190.73
1102,11147.68
1103,11095.66
1104,11046.16
1105,11012.31
1106,11003.08
1107,11005.04
1108,10997.26
1109,10967.35
1110,10934.05
1111,10923.09
1112,10946.38
1113,10981.57
1114,11001.33
1115,10997.02
1116,10991.77
1117,11011.08
1118,11056.06
1119,11098.84
1120,11111.2
1121,11086.86
1122,11037.69
1123,10975.98
1124,10913.28
1125,10860.66
1126,10826.7
1127,10804.64
1128,10781.87
1129,10748.66
1130,10706.7
1131,10660.5
1132,10615.01
1133,10576.28
1134,10550.5
1135,10538.98
1136,10534.86
1137,10530.59
1138,10521.33
1139,10505.31
1140,10481.22
1141,10452.78
1142,10427.4
1143,10411.61
1144,10404.1
1145,10399.73
1146,10393.86
1147,10384.25
1148,10369.44
1149,10348.8
1150,10324.29
1151,10298.37
1152,10275.76
1153,10265.43
1154,10276.42
1155,10303.3
1156,10323.29
1157,10314.09
1158,10276.44
1159,10228.92
1160,10188.73
1161,10158.34
1162,10133.06
1163,10109.16
1164,10087.8
1165,10071.59
1166,10064.12
1167,10071.8
1168,10101.35
1169,10146.67
1170,10180.17
1171,10173.35
1172,10125.74
1173,10065.95
1174,10022.45
1175,10006.64
1176,10018.99
1177,10055.84
1178,10089.04
1179,10081.1
1180,10012.05
1181,9922.794
1182,9867.256
1183,9871.137
1184,9903.606
1185,9927.836
1186,9930.757
1187,9927.605
1188,9934
1189,9948.497
1190,9957.515
1191,9948.882
1192,9921.701
1193,9879.734
1194,9829.692
1195,9788.994
1196,9777.413
1197,9800.221
1198,9833.275
1199,9849.4
1200,9838.016
1201,9807.928
1202,9769.597
1203,9740.289
1204,9741.88
1205,9789.579
1206,9857.295
1207,9903.313
1208,9899.246
1209,9859.627
1210,9807.545
1211,9761.363
1212,9731.191
1213,9725.845
1214,9743.604
1215,9772.42
1216,9800.388
1217,9821.047
1218,9830.914
1219,9827.907
1220,9816.296
1221,9802.188
1222,9790.681
1223,9784.457
1224,9785.791
1225,9794.808
1226,9808.876
1227,9825.019
1228,9838.217
1229,9842.012
1230,9831.668
1231,9813.045
1232,9795.922
1233,9785.788
1234,9775.411
1235,9755.368
1236,9725.16
1237,9697.917
1238,9687.108
1239,9692.841
1240,9704.337
1241,9711.71
1242,9713.573
1243,9712.131
1244,9709.834
1245,9709.903
1246,9715.632
1247,9724.56
1248,9724.761
1249,9704.729
1250,9676.021
1251,9669.859
1252,9710.765
1253,9770.931
1254,9799.885
1255,9767.34
1256,9709.658
1257,9676.429
1258,9687.106
1259,9713.049
1260,9723.057
1261,9714.573
1262,9708.215
1263,9720.996
1264,9742.237
1265,9750.237
1266,9734.102
1267,9714.621
1268,9717.854
1269,9745.726
1270,9766.348
1271,9748.542
1272,9703.291
1273,9670.826
1274,9682.354
1275,9718.419
1276,9743.05
1277,9734.895
1278,9706.902
1279,9676.789
1280,9657.835
1281,9658.364
1282,9683.989
1283,9717.861
1284,9731.088
1285,9706.99
1286,9676.005
1287,9679.45
1288,9726.575
1289,9771.965
1290,9768.097
1291,9720.306
1292,9676.517
1293,9677.607
1294,9715.066
1295,9762.237
1296,9798.812
1297,9820.487
1298,9825.452
1299,9812.756
1300,9782.436
1301,9736.596
1302,9695.177
1303,9687.447
1304,9729.98
1305,9794.134
1306,9841.545
1307,9851.44
1308,9829.828
1309,9785.657
1310,9736.688
1311,9706.763
1312,9715.217
1313,9759.331
1314,9829.812
1315,9907.688
1316,9955.304
1317,9935.869
1318,9866.95
1319,9812.656
1320,9825.065
1321,9875.397
1322,9905.257
1323,9885.64
1324,9856.521
1325,9865.919
1326,9918.285
1327,9974.312
1328,9997.78
1329,9988.098
1330,9959.931
1331,9930.596
1332,9924.265
1333,9965.037
1334,10041.74
1335,10103.88
1336,10106.85
1337,10068.77
1338,10037.21
1339,10041.21
1340,10055.8
1341,10047.29
1342,10012.88
1343,9985.937
1344,9996.556
1345,10031.35
1346,10055.82
1347,10046.42
1348,10012.22
1349,9968.275
1350,9930.841
1351,9917.588
1352,9941.854
1353,9982.072
1354,10000.18
1355,9976.423
1356,9942.489
1357,9937.744
1358,9967.34
1359,9998.999
1360,10003.72
1361,9989.896
1362,9982.147
1363,9997.978
1364,10036.83
1365,10094.92
1366,10158.18
1367,10202.58
1368,10209.5
1369,10195.97
1370,10192.36
1371,10213
1372,10238.19
1373,10245.3
1374,10235.47
1375,10229.35
1376,10243.07
1377,10267.74
1378,10286.94
1379,10290.73
1380,10280.14
1381,10257.62
1382,10229.33
1383,10203.85
1384,10188.15
1385,10183.17
1386,10188.33
1387,10200.15
1388,10211.28
1389,10214.73
1390,10208.88
1391,10194.69
1392,10176.14
1393,10164.9
1394,10173.09
1395,10194.83
1396,10207.2
1397,10190.96
1398,10150.84
1399,10099.75
1400,10054.89
1401,10041.16
1402,10080.01
1403,10142.53
1404,10166.93
1405,10117.52
1406,10051.38
1407,10043.71
1408,10103.07
1409,10159.15
1410,10149.43
1411,10096.33
1412,10057.54
1413,10066.05
1414,10102.17
1415,10140.2
1416,10165.65
1417,10172.33
1418,10158.8
1419,10141.19
1420,10139.5
1421,10158.06
1422,10181.35
1423,10193.39
1424,10184.4
1425,10147.34
1426,10088.03
1427,10039.62
1428,10036.55
1429,10080.99
1430,10151.69
1431,10224.98
1432,10270.65
1433,10258.01
1434,10191.97
1435,10118.83
1436,10081.47
1437,10086.3
1438,10125.69
1439,10184.6
1440,10234.53
1441,10248.32
1442,10229.34
1443,10199.57
1444,10175.54
1445,10157.17
1446,10141.73
1447,10132.94
1448,10140.47
1449,10169.85
1450,10206.71
1451,10231.33
1452,10238.46
1453,10242.54
1454,10256.6
1455,10273.6
1456,10277.92
1457,10270.14
1458,10282.8
1459,10346.61
1460,10429.55
1461,10460.5
1462,10402.72
1463,10319.14
1464,10286.81
1465,10317.07
1466,10364.3
1467,10390.78
1468,10399.06
1469,10401.71
1470,10405.83
1471,10412.04
1472,10420.81
1473,10433.57
1474,10451.93
1475,10466.13
1476,10448.79
1477,10378.61
1478,10294.4
1479,10263.02
1480,10310.2
1481,10378.16
1482,10404.85
1483,10392.85
1484,10383.85
1485,10400.74
1486,10416.2
1487,10397.59
1488,10352.79
1489,10320.29
1490,10326.64
1491,10356.7
1492,10387.2
1493,10402.62
1494,10394.54
1495,10360.45
1496,10320.47
1497,10299.83
1498,10306.51
1499,10329.67
1500,10357.41
1501,10377.16
1502,10376.62
1503,10360.18
1504,10353.29
1505,10376.75
1506,10417.35
1507,10450.21
1508,10460.73
1509,10449.12
1510,10419.35
1511,10392.49
1512,10396
1513,10435.31
1514,10481.08
1515,10505.75
1516,10516.71
1517,10536.21
1518,10564.7
1519,10565.46
1520,10508.03
1521,10437.91
1522,10435.32
1523,10523.78
1524,10624.96
1525,10660.06
1526,10633.56
1527,10590
1528,10561.69
1529,10557.9
1530,10583.04
1531,10622.1
1532,10650.59
1533,10654.57
1534,10639.67
1535,10614.68
1536,10596.55
1537,10606.07
1538,10647.51
1539,10695.34
1540,10723.33
1541,10724.86
1542,10702.58
1543,10671.98
1544,10670.39
1545,10728.31
1546,10810.44
1547,10853.02
1548,10833.77
1549,10797
1550,10787.23
1551,10809.46
1552,10852.66
1553,10896.36
1554,10906.41
1555,10859.37
1556,10800.22
1557,10797.09
1558,10856.2
1559,10903.56
1560,10880.7
1561,10834.35
1562,10841.74
1563,10912.08
1564,10978.04
1565,10986.61
1566,10962.65
1567,10950.08
1568,10964.33
1569,10993.6
1570,11023.93
1571,11037.76
1572,11018.74
1573,10981.63
1574,10965.91
1575,10994.17
1576,11040.89
1577,11075.15
1578,11098.88
1579,11134.91
1580,11192.78
1581,11252.79
1582,11293.62
1583,11312.63
1584,11316.6
1585,11316.07
1586,11327.76
1587,11362.92
1588,11395.57
1589,11386.7
1590,11338.39
1591,11304.46
1592,11325.56
1593,11369.16
1594,11384.84
1595,11371.96
1596,11376.48
1597,11422.86
1598,11462.98
1599,11440.91
1600,11381.29
1601,11363.38
1602,11423.07
1603,11499.77
1604,11528.61
1605,11512.63
1606,11487.06
1607,11473.62
1608,11473.38
1609,11482.86
1610,11483.91
1611,11455.01
1612,11409.3
1613,11395.48
1614,11443.22
1615,11514.15
1616,11558.85
1617,11567.29
1618,11556.45
1619,11537.74
1620,11509.82
1621,11472
1622,11439.66
1623,11434.85
1624,11459.82
1625,11490.35
1626,11503.17
1627,11487.32
1628,11436.89
1629,11376.48
1630,11356.4
1631,11400.47
1632,11463.7
1633,11495.57
1634,11491.85
1635,11472.08
1636,11454.02
1637,11452.36
1638,11474.9
1639,11497.66
1640,11489.12
1641,11453.69
1642,11427.81
1643,11435.6
1644,11466.1
1645,11502.46
1646,11526.03
1647,11517.54
1648,11477.14
1649,11433.15
1650,11411.57
1651,11418.07
1652,11451.81
1653,11497.23
1654,11526.81
1655,11524.06
1656,11498.51
1657,11463.85
1658,11437.3
1659,11437.06
1660,11460.78
1661,11481.23
1662,11481.63
1663,11486.87
1664,11526.47
1665,11577.98
1666,11586.13
1667,11533.24
1668,11467.39
1669,11435.47
1670,11444.85
1671,11489.63
1672,11550.35
1673,11595.63
1674,11605.51
1675,11587.96
1676,11557.68
1677,11548.37
1678,11599.83
1679,11690.26
1680,11727.99
1681,11661.56
1682,11574.42
1683,11564.54
1684,11623.05
1685,11683.74
1686,11710.81
1687,11711.71
1688,11698.49
1689,11688.37
1690,11698.07
1691,11723.59
1692,11747.6
1693,11759.42
1694,11759.61
1695,11751.27
1696,11743.98
1697,11748.35
1698,11763.74
1699,11781.26
1700,11788.85
1701,11769.18
1702,11714.25
1703,11664.44
1704,11671.19
1705,11728.12
1706,11783.8
1707,11806.53
1708,11804.55
1709,11792.99
1710,11798.92
1711,11850.58
1712,11934.12
1713,12002.51
1714,12022.74
1715,11990.42
1716,11912.62
1717,11837.08
1718,11820.36
1719,11861.65
1720,11916.57
1721,11955.88
1722,11979.55
1723,11989.21
1724,11980.13
1725,11947.82
1726,11913.69
1727,11916.76
1728,11964.6
1729,12013.79
1730,12026.65
1731,12006.6
1732,11968.25
1733,11937.71
1734,11947.28
1735,11995.09
1736,12032.59
1737,12032.47
1738,12046.67
1739,12128.64
1740,12212.68
1741,12179.09
1742,12039.14
1743,11948.66
1744,11997.25
1745,12090.09
1746,12121.07
1747,12089.11
1748,12032.8
1749,11992.29
1750,12008.56
1751,12076.93
1752,12108.33
1753,12038.97
1754,11954.19
1755,11967.07
1756,12051.86
1757,12099.32
1758,12079.93
1759,12070.73
1760,12115.71
1761,12141.72
1762,12074.67
1763,11979.41
1764,11973.07
1765,12059.28
1766,12140.1
1767,12154.51
1768,12117.85
1769,12059.14
1770,12029.05
1771,12074.54
1772,12146.52
1773,12143.56
1774,12059.07
1775,11999.44
1776,12026.1
1777,12073.03
1778,12070.87
1779,12039.04
1780,12025.12
1781,12048.17
1782,12106.28
1783,12171.29
1784,12178.2
1785,12096.72
1786,12007.9
1787,11996.79
1788,12039.87
1789,12073.47
1790,12084.68
1791,12101.19
1792,12130.91
1793,12148.73
1794,12135.83
1795,12103.02
1796,12069.29
1797,12068.44
1798,12136.06
1799,12231.74
1800,12253.43
1801,12178.7
1802,12114.12
1803,12142.07
1804,12232.15
1805,12331.08
1806,12380.98
1807,12329.23
1808,12231.98
1809,12227.52
1810,12340.52
1811,12427.95
1812,12398.11
1813,12339.25
1814,12346.22
1815,12375.68
1816,12345.51
1817,12286.36
1818,12300.84
1819,12399.13
1820,12478.18
1821,12474.77
1822,12430.25
1823,12391.72
1824,12369.4
1825,12363.22
1826,12369.95
1827,12384.3
1828,12392.54
1829,12373.47
1830,12330.97
1831,12310.66
1832,12341.12
1833,12387.59
1834,12411.39
1835,12420.47
1836,12437.06
1837,12455.95
1838,12455.03
1839,12432.68
1840,12410.45
1841,12403.63
1842,12412.88
1843,12435.42
1844,12462.14
1845,12481.23
1846,12472.32
1847,12416.57
1848,12359.58
1849,12388.67
1850,12492.95
1851,12545.87
1852,12493.41
1853,12438.77
1854,12461.77
1855,12495.7
1856,12461.21
1857,12399.28
1858,12390
1859,12428.31
1860,12455.44
1861,12455.53
1862,12459.39
1863,12478.6
1864,12487.12
1865,12469.17
1866,12450.24
1867,12455.07
1868,12466.21
1869,12458.79
1870,12460.28
1871,12521.16
1872,12613.07
1873,12642.57
1874,12587.62
1875,12524.33
1876,12494.91
1877,12454.37
1878,12376.78
1879,12342.32
1880,12427.91
1881,12555.09
1882,12600.41
1883,12555.24
1884,12476.72
1885,12412.13
1886,12398.41
1887,12433.89
1888,12464.68
1889,12456.44
1890,12424.31
1891,12390.26
1892,12378.07
1893,12404.08
1894,12442.85
1895,12458.52
1896,12445.38
1897,12413.3
1898,12373.35
1899,12337.54
1900,12318.66
1901,12330.12
1902,12362.94
1903,12370.44
1904,12330.69
1905,12293.61
1906,12306.08
1907,12360.04
1908,12429.34
1909,12459.62
1910,12398.95
1911,12314.22
1912,12326.2
1913,12397.67
1914,12373.44
1915,12253.46
1916,12211.12
1917,12298.66
1918,12363.71
1919,12324.25
1920,12297.01
1921,12361.16
1922,12384.86
1923,12249.46
1924,12103.48
1925,12140.29
1926,12311.08
1927,12469.31
1928,12524.18
1929,12426.81
1930,12270.12
1931,12255.48
1932,12380.12
1933,12413.04
1934,12283.14
1935,12178.6
1936,12205.99
1937,12259.55
1938,12253.22
1939,12230.42
1940,12241.31
1941,12273.93
1942,12300.99
1943,12294.43
1944,12234.58
1945,12167.02
1946,12158.36
1947,12185.01
1948,12174
1949,12126.72
1950,12101.77
1951,12119.11
1952,12158.15
1953,12207.59
1954,12270.28
1955,12323.87
1956,12302.53
1957,12206.44
1958,12187.4
1959,12309.26
1960,12334.48
1961,12095.01
1962,11864.9
1963,11924
1964,12107.2
1965,12163.64
1966,12114.1
1967,12066.89
1968,12019.11
1969,11926.67
1970,11861.4
1971,11950.09
1972,12138.55
1973,12247.88
1974,12219.43
1975,12103.57
1976,11970.3
1977,11905.02
1978,11930.81
1979,11989.6
1980,12014.66
1981,11935.09
1982,11754.95
1983,11617.16
1984,11613.27
1985,11687.81
1986,11782.73
1987,11885.15
1988,11973.08
1989,11973.3
1990,11838.21
1991,11654.31
1992,11529.6
1993,11527.01
1994,11664.6
1995,11790.44
1996,11740.9
1997,11621.52
1998,11611.84
1999,11689.41
2000,11752.33
2001,11773.43
2002,11765.24
2003,11762.81
2004,11808.4
2005,11882.22
2006,11924.77
2007,11876.32
2008,11688.48
2009,11485.17
2010,11508.09
2011,11666.33
2012,11594.15
2013,11308.92
2014,11190.92
2015,11313.82
2016,11421.65
2017,11418.14
2018,11403.72
2019,11428.68
2020,11468.58
2021,11475.43
2022,11378.71
2023,11213.95
2024,11164.68
2025,11270.68
2026,11343.03
2027,11298.14
2028,11246.9
2029,11254.87
2030,11284.44
2031,11302.47
2032,11300.52
2033,11287.99
2034,11301.47
2035,11330.87
2036,11274.93
2037,11125.52
2038,11070.7
2039,11182.51
2040,11263.04
2041,11201.86
2042,11124.73
2043,11113.63
2044,11106.16
2045,11057.66
2046,10994.5
2047,10946.11
2048,10930.51
2049,10950.16
2050,10978.79
2051,10984.78
2052,10933.09
2053,10828
2054,10751.17
2055,10753.29
2056,10808.28
2057,10846.32
2058,10734.4
2059,10493.49
2060,10429.85
2061,10618.04
2062,10685.6
2063,10497.24
2064,10378.34
2065,10467.85
2066,10547.4
2067,10500.92
2068,10409.92
2069,10342.88
2070,10327.05
2071,10354.97
2072,10378.35
2073,10362.87
2074,10295.96
2075,10202.75
2076,10147.04
2077,10134.42
2078,10109.85
2079,10059.63
2080,10011.41
2081,9979.611
2082,9966.147
2083,9978.964
2084,10027.43
2085,10072.81
2086,10050.14
2087,9984.704
2088,9947.813
2089,9896.916
2090,9751.239
2091,9651.151
2092,9783.657
2093,9877.897
2094,9587.513
2095,9329.59
2096,9619.564
2097,9973.507
2098,9800.97
2099,9486.021
2100,9489.812
2101,9546.824
2102,9392.952
2103,9307.144
2104,9478.529
2105,9574.854
2106,9405.823
2107,9285.286
2108,9363.938
2109,9364.967
2110,9185.525
2111,9062.764
2112,9099.129
2113,9184.556
2114,9232.591
2115,9200.933
2116,9109.449
2117,9028.479
2118,8982.658
2119,8958.054
2120,8902.717
2121,8768.48
2122,8717.951
2123,8930.331
2124,9048.585
2125,8693.774
2126,8389.456
2127,8658.024
2128,8983.132
2129,8874.477
2130,8631.938
2131,8530.678
2132,8466.511
2133,8370.143
2134,8323.118
2135,8313.463
2136,8187.449
2137,7992.368
2138,7984.545
2139,8127.521
2140,8159.883
2141,8133.669
2142,8266.463
2143,8452.911
2144,8469.783
2145,8333.437
2146,8130.026
2147,7870.585
2148,7585.31
2149,7424.974
2150,7466.375
2151,7566.339
2152,7614.133
2153,7604.454
2154,7555.695
2155,7502.795
2156,7471.645
2157,7475.144
2158,7480.193
2159,7435.784
2160,7394.455
2161,7427.933
2162,7434.16
2163,7308.559
2164,7165.879
2165,7105.275
2166,7047.038
2167,6961.19
2168,6959.874
2169,7018.293
2170,6925.105
2171,6719.699
2172,6662.205
2173,6734.398
2174,6753.131
2175,6701.616
2176,6636.79
2177,6602.941
2178,6606.448
2179,6545.607
2180,6393.906
2181,6328.248
2182,6401.578
2183,6453.703
2184,6401.74
2185,6263.188
2186,6150.631
2187,6194.896
2188,6214.686
2189,5996.23
2190,5814.917
2191,5897.417
2192,5923.822
2193,5711.843
2194,5517.786
2195,5506.286
2196,5658.556
2197,5765.768
2198,5544.439
2199,5335.832
2200,5618.727
2201,5852.952
2202,5523.252
2203,5278.217
2204,5476.692
2205,5447.951
2206,5064.979
2207,4999.157
2208,5211.603
2209,5129.895
2210,4885.957
2211,4867.17
2212,4918.302
2213,4822.642
2214,4669.911
2215,4566.406
2216,4548.45
2217,4582.114
2218,4578.32
2219,4608.378
2220,4787.662
2221,4809.221
2222,4416.466
2223,4160.988
2224,4375.341
2225,4540.23
2226,4428.664
2227,4305.665
2228,4191.949
2229,3942.549
2230,3748.515
2231,3861.549
2232,4157.74
2233,4420.03
2234,4441.623
2235,4230.396
2236,4057.155
2237,3962.137
2238,3824.567
2239,3736.478
2240,3794.096
2241,3746.679
2242,3497.896
2243,3434.286
2244,3613.2
2245,3662.361
2246,3577.5
2247,3569.474
2248,3548.877
2249,3398.256
2250,3264.505
2251,3232.431
2252,3199.331
2253,3122.9
2254,3034.986
2255,2973.289
2256,2953.952
2257,2893.543
2258,2769.389
2259,2747.6
2260,2820.715
2261,2766.868
2262,2641.839
2263,2637.83
2264,2656.01
2265,2567.12
2266,2431.56
2267,2374.478
2268,2539.814
2269,2675.696
2270,2363.143
2271,2018.109
2272,2142.102
2273,2502.888
2274,2697.971
2275,2326.352
2276,1769.234
2277,1853.376
2278,2220.75
2279,2277.844
2280,2204.172
2281,2143.29
2282,1970.391
2283,1746.039
2284,1673.249
2285,1831.003
2286,2100.316
2287,1950.001
2288,1394.448
2289,1245.171
2290,1467.449
2291,1522.397
2292,1573.951
2293,1780.214
2294,1715.744
2295,1378.783
2296,1302.206
2297,1347.776
2298,1145.908
2299,1062.491
2300,1278.933
