400,51129.02
401,51048.69
402,51035.63
403,51066.26
404,51113.52
405,51150.98
406,51154.7
407,51101.51
408,50971.52
409,50791.45
410,50623.98
411,50532.04
412,50541.75
413,50608.02
414,50677.86
415,50707.5
416,50701
417,50678.31
418,50658.39
419,50645.07
420,50629.32
421,50601.76
422,50557.75
423,50502.48
424,50442.3
425,50385.07
426,50346.95
427,50347.03
428,50402.08
429,50487.98
430,50544.7
431,50511.45
432,50368.31
433,50182.24
434,50031.05
435,49976.73
436,49993.62
437,50025.44
438,50018.37
439,49958.62
440,49866.71
441,49764.15
442,49667.85
443,49585.47
444,49523.53
445,49484.47
446,49449.62
447,49393.45
448,49292.95
449,49161.46
450,49041.01
451,48973.84
452,48972.72
453,48996.97
454,49000.41
455,48946.07
456,48837.91
457,48691.36
458,48522.31
459,48353.29
460,48211.24
461,48122.64
462,48087.63
463,48066.08
464,48014.68
465,47906.66
466,47775.16
467,47666.8
468,47621.82
469,47621.79
470,47616.17
471,47555.58
472,47431.6
473,47285.66
474,47161.96
475,47088.74
476,47050.39
477,47023.88
478,46987.46
479,46927.42
480,46833.41
481,46696.51
482,46535.39
483,46393.86
484,46316.2
485,46313.85
486,46333.27
487,46313.5
488,46210.61
489,46058.29
490,45912.44
491,45824.35
492,45794.71
493,45791.58
494,45782.97
495,45753.52
496,45710.4
497,45662.39
498,45612.69
499,45548.11
500,45452.42
501,45313.93
502,45151.32
503,44996.13
504,44878.77
505,44810.68
506,44786.34
507,44799.62
508,44836.1
509,44866.1
510,44858.39
511,44789.91
512,44669.84
513,44515.48
514,44344.53
515,44179.5
516,44045.43
517,43966.48
518,43944.8
519,43958.12
520,43983.07
521,43995.02
522,43966.52
523,43869.8
524,43690.41
525,43478.23
526,43302.58
527,43224.79
528,43219.35
529,43206.01
530,43105.96
531,42908.35
532,42686.57
533,42518.88
534,42449.19
535,42436.9
536,42428.67
537,42380.4
538,42295.59
539,42193.27
540,42091.69
541,42000.82
542,41925.14
543,41868.82
544,41826.63
545,41781.65
546,41716.3
547,41624.26
548,41526.52
549,41448.18
550,41407.23
551,41386.63
552,41358.43
553,41297.54
554,41208.93
555,41116.04
556,41041.9
557,40991.76
558,40950.41
559,40901.64
560,40834.54
561,40749.59
562,40648.82
563,40535.44
564,40418.07
565,40306.7
566,40210.24
567,40128.33
568,40055.8
569,39987.54
570,39920.34
571,39852.8
572,39783.72
573,39718.34
574,39673.23
575,39666.01
576,39698.27
577,39719.27
578,39667.84
579,39498.79
580,39267.82
581,39070.13
582,38992.73
583,39016.34
584,39045.55
585,38985.96
586,38823.32
587,38644.73
588,38543.13
589,38559.8
590,38619.53
591,38631.45
592,38531.09
593,38363.79
594,38203.57
595,38114.78
596,38086.59
597,38071.9
598,38025.82
599,37941.93
600,37846.15
601,37764.9
602,37705.51
603,37647.85
604,37569.79
605,37460.34
606,37336.48
607,37219.45
608,37127.6
609,37066.69
610,37038.85
611,37042.89
612,37049.42
613,37014.98
614,36899.98
615,36730.67
616,36589.19
617,36557.51
618,36646.5
619,36766.78
620,36821.95
621,36757.09
622,36615.46
623,36454.37
624,36319.74
625,36210.89
626,36115.07
627,36021.93
628,35938.41
629,35879.14
630,35856.86
631,35858.05
632,35849.86
633,35800.08
634,35706.88
635,35604.53
636,35529.04
637,35494.48
638,35472.86
639,35431.51
640,35349.71
641,35244.7
642,35141.15
643,35059.98
644,35002.19
645,34962.04
646,34932.88
647,34899.06
648,34840.02
649,34737.18
650,34606.79
651,34495.33
652,34448.95
653,34467.54
654,34488.62
655,34445.86
656,34319.28
657,34186.79
658,34138.47
659,34222.25
660,34343.3
661,34376.8
662,34227.32
663,33959.88
664,33694.67
665,33540.15
666,33499.97
667,33520.93
668,33550.96
669,33561.94
670,33545.56
671,33494.39
672,33409.54
673,33302.66
674,33186.07
675,33072.56
676,32975.95
677,32910.11
678,32878.98
679,32858
680,32817.63
681,32737.18
682,32635.29
683,32541.59
684,32481.02
685,32446.75
686,32418.23
687,32376.26
688,32316.54
689,32244.25
690,32164.91
691,32087.59
692,32024.67
693,31988.31
694,31978.63
695,31979.49
696,31973.71
697,31943.89
698,31872.23
699,31740.96
700,31554.11
701,31378.52
702,31292.02
703,31343.27
704,31456.09
705,31521.04
706,31449.04
707,31279.82
708,31104.16
709,31004.38
710,30982.45
711,30994.51
712,30997.77
713,30971.46
714,30912.53
715,30818.98
716,30705.12
717,30603.34
718,30546.39
719,30537.71
720,30535.58
721,30494.74
722,30396.2
723,30277.46
724,30183.16
725,30140.88
726,30126.68
727,30106.96
728,30056.03
729,29981.83
730,29901.31
731,29829.64
732,29771.43
733,29727.28
734,29696.7
735,29669.47
736,29630.36
737,29565.27
738,29474.8
739,29369.87
740,29261.43
741,29158.31
742,29067.26
743,28994.81
744,28942.98
745,28908.17
746,28886.43
747,28871.85
748,28855.29
749,28827.39
750,28785.3
751,28740.3
752,28705.49
753,28684.59
754,28654.03
755,28585.39
756,28464.92
757,28336.05
758,28255.98
759,28265.01
760,28315.59
761,28331.67
762,28251.7
763,28114.57
764,28002.22
765,27985.75
766,28034.11
767,28059.51
768,27981.43
769,27819.24
770,27663.25
771,27600.44
772,27633.54
773,27689.56
774,27694.98
775,27629.41
776,27532.33
777,27445.69
778,27385.54
779,27331.38
780,27260.24
781,27168.86
782,27088.63
783,27054.21
784,27077.25
785,27118.59
786,27132.47
787,27090.71
788,27013.53
789,26929.39
790,26858.89
791,26795.69
792,26727.61
793,26646.9
794,26564.97
795,26498.43
796,26460.58
797,26447.14
798,26447.85
799,26452.18
800,26447.58
801,26420.63
802,26360.14
803,26273.44
804,26177.22
805,26087
806,26005.92
807,25929.58
808,25854.14
809,25784.41
810,25731.47
811,25705.53
812,25699.64
813,25692.14
814,25661.77
815,25605.55
816,25538.89
817,25477.6
818,25427.03
819,25380.17
820,25329.45
821,25271.24
822,25207.33
823,25139.98
824,25074.54
825,25021.38
826,24991.14
827,24983.21
828,24976.07
829,24946.17
830,24882.83
831,24802.88
832,24726.61
833,24667.08
834,24619.69
835,24577.14
836,24533.73
837,24488.14
838,24439.78
839,24389.06
840,24339.49
841,24295.2
842,24258.2
843,24222.65
844,24180.87
845,24128.18
846,24072.45
847,24024.8
848,23993.21
849,23970.5
850,23945
851,23907.8
852,23864.68
853,23826.27
854,23800.87
855,23782.26
856,23758.9
857,23721.63
858,23677.56
859,23640.51
860,23621.23
861,23607.23
862,23575.48
863,23506.99
864,23416.49
865,23335.55
866,23291.75
867,23275.8
868,23258.42
869,23213.11
870,23142.95
871,23068.31
872,23008.88
873,22974.45
874,22968.64
875,22993.24
876,23029.06
877,23042.82
878,23004.15
879,22923.68
880,22841.36
881,22794.91
882,22782.41
883,22771.9
884,22732.88
885,22667.4
886,22603.43
887,22567.82
888,22558.13
889,22547.5
890,22510.14
891,22452
892,22406.57
893,22406.16
894,22444.92
895,22482.5
896,22479.07
897,22427.23
898,22349.77
899,22270.13
900,22201.4
901,22146.84
902,22108.94
903,22082.16
904,22053.12
905,22008.91
906,21954.7
907,21913.67
908,21908.53
909,21933.16
910,21952.24
911,21930.58
912,21864.69
913,21783.54
914,21716.67
915,21673.44
916,21642.48
917,21611.77
918,21575.87
919,21536.13
920,21494.18
921,21451.17
922,21407.77
923,21364.51
924,21319.87
925,21270.15
926,21211.75
927,21144.62
928,21072.28
929,20998.66
930,20933.46
931,20892.11
932,20889
933,20912.4
934,20925.24
935,20891.35
936,20812.04
937,20723.92
938,20663.48
939,20639.74
940,20636.62
941,20637.46
942,20631.82
943,20614.71
944,20581.66
945,20533.77
946,20476.87
947,20417.03
948,20362.17
949,20321.7
950,20304.17
951,20304.99
952,20309.34
953,20303.37
954,20289.15
955,20280.55
956,20289.58
957,20301.33
958,20282.22
959,20203.14
960,20090.98
961,20009.23
962,20014.64
963,20085.98
964,20154.35
965,20157.27
966,20100.4
967,20028.21
968,19980.73
969,19955.12
970,19925.95
971,19871.79
972,19805.18
973,19755.15
974,19744.86
975,19754.31
976,19744.29
977,19682.93
978,19587.05
979,19493.2
980,19432.52
981,19404.3
982,19396.12
983,19396.73
984,19401.07
985,19406.11
986,19408.16
987,19400.32
988,19374.71
989,19328.66
990,19281.27
991,19257.36
992,19270.21
993,19290.2
994,19277.78
995,19210.35
996,19120.72
997,19053.01
998,19033.69
999,19038.52
1000,19034.23
1001,19000.05
1002,18946.69
1003,18889.72
1004,18840.98
1005,18803.94
1006,18781
1007,18772.32
1008,18768.01
1009,18755.29
1010,18724.96
1011,18682.1
1012,18635.36
1013,18592.53
1014,18558.5
1015,18537.54
1016,18530.32
1017,18526.88
1018,18515.34
1019,18490.48
1020,18463.9
1021,18449.83
1022,18454.44
1023,18466.6
1024,18472.96
1025,18468.19
1026,18461.59
1027,18463.9
1028,18477.21
1029,18490.05
1030,18489.95
1031,18468.69
1032,18423.71
1033,18353.37
1034,18270.12
1035,18202.15
1036,18176.88
1037,18191.03
1038,18212.86
1039,18211.46
1040,18184.06
1041,18149.6
1042,18126.3
1043,18118.37
1044,18121.04
1045,18129.45
1046,18138.4
1047,18142.6
1048,18137.2
1049,18120.24
1050,18090.98
1051,18049.42
1052,17999.55
1053,17946.63
1054,17898.27
1055,17871.84
1056,17887.19
1057,17948.34
1058,18008.92
1059,18012.67
1060,17934.93
1061,17829.01
1062,17759.64
1063,17759.6
1064,17800.27
1065,17846.36
1066,17873
1067,17870.85
1068,17832.56
1069,17771.53
1070,17725.32
1071,17730.82
1072,17787.98
1073,17863.4
1074,17924.5
1075,17962.9
1076,17987.06
1077,18006.31
1078,18035.45
1079,18092.07
1080,18188.77
1081,18306.43
1082,18413.51
1083,18483.49
1084,18512.62
1085,18503.63
1086,18464.45
1087,18419.93
1088,18398.35
1089,18413.62
1090,18445.52
1091,18468.96
1092,18463.51
1093,18416.81
1094,18318.04
1095,18184.35
1096,18068.35
1097,18021.89
1098,18037.56
1099,18052.96
1100,18009.1
1101,17913.88
1102,17820.21
1103,17774.87
1104,17769.84
1105,17770.73
1106,17749.52
1107,17713.11
1108,17680.09
1109,17663.99
1110,17660.07
1111,17659.43
1112,17655.65
1113,17648.43
1114,17638.45
1115,17628.33
1116,17624.12
1117,17631.94
1118,17650.62
1119,17670.34
1120,17680.86
1121,17673.44
1122,17640.65
1123,17576.51
1124,17489.13
1125,17394.63
1126,17307.92
1127,17235.93
1128,17182.56
1129,17148.05
1130,17118.3
1131,17075.67
1132,17009.23
1133,16925.19
1134,16832.47
1135,16743.31
1136,16675.45
1137,16646.33
1138,16650.4
1139,16656.38
1140,16634.09
1141,16588.19
1142,16549.29
1143,16544.83
1144,16571.68
1145,16611.88
1146,16647.1
1147,16657.81
1148,16624.13
1149,16540.07
1150,16441.74
1151,16372.88
1152,16355.32
1153,16369.39
1154,16391.03
1155,16401.36
1156,16387.78
1157,16339.86
1158,16273.65
1159,16225.77
1160,16226.53
1161,16251.24
1162,16248.43
1163,16181.66
1164,16085.79
1165,16016.58
1166,16007.83
1167,16032.23
1168,16052.24
1169,16049.73
1170,16039.24
1171,16037.75
1172,16045.77
1173,16046.77
1174,16024.99
1175,15982.68
1176,15933.66
1177,15890.74
1178,15859.63
1179,15843.31
1180,15842.92
1181,15853.02
1182,15866.77
1183,15874.3
1184,15859.69
1185,15807.19
1186,15729.13
1187,15671.29
1188,15677.24
1189,15734.91
1190,15792.59
1191,15805.46
1192,15780.76
1193,15747.28
1194,15725.88
1195,15708.4
1196,15680.06
1197,15635.27
1198,15587.09
1199,15550.55
1200,15532.57
1201,15530.61
1202,15541.23
1203,15557.15
1204,15568.43
1205,15566.6
1206,15552.58
1207,15530.8
1208,15505.46
1209,15479.93
1210,15457.46
1211,15444.31
1212,15452.02
1213,15491.43
1214,15546
1215,15572.3
1216,15532.47
1217,15451.62
1218,15389.28
1219,15391.03
1220,15435.92
1221,15483.81
1222,15509.08
1223,15520.89
1224,15533.08
1225,15546.32
1226,15544.22
1227,15511.02
1228,15453.72
1229,15395.29
1230,15356.17
1231,15339.65
1232,15342.64
1233,15360.33
1234,15382.78
1235,15399.21
1236,15404.07
1237,15399.79
1238,15389.46
1239,15375.81
1240,15361.31
1241,15348.26
1242,15338.02
1243,15331.55
1244,15329.85
1245,15334.21
1246,15345.87
1247,15362.99
1248,15378.58
1249,15385.42
1250,15380.31
1251,15363.5
1252,15336.78
1253,15311.97
1254,15305.25
1255,15324.91
1256,15353.25
1257,15367.43
1258,15359.72
1259,15346.35
1260,15344.74
1261,15355.96
1262,15367.85
1263,15370.49
1264,15370.95
1265,15383.05
1266,15410.81
1267,15429.47
1268,15409.62
1269,15349.03
1270,15283.61
1271,15249.52
1272,15249.1
1273,15261.23
1274,15267.2
1275,15263.58
1276,15251.96
1277,15236.73
1278,15228.9
1279,15240.14
1280,15272.71
1281,15318.46
1282,15367.66
1283,15401.42
1284,15395.91
1285,15339.67
1286,15268.65
1287,15229.81
1288,15244.39
1289,15289.76
1290,15339.21
1291,15370.1
1292,15363.07
1293,15307.07
1294,15240.23
1295,15218.64
1296,15268.17
1297,15338.71
1298,15369.98
1299,15348.44
1300,15313.76
1301,15304.49
1302,15323.38
1303,15354.57
1304,15380.91
1305,15381.67
1306,15335.8
1307,15254.07
1308,15195.62
1309,15217.81
1310,15302.29
1311,15378.54
1312,15393.26
1313,15379.72
1314,15396.36
1315,15462.52
1316,15521.69
1317,15512.78
1318,15448.35
1319,15404.03
1320,15441.87
1321,15530.39
1322,15603.86
1323,15621.4
1324,15600.58
1325,15567.13
1326,15541.84
1327,15540.59
1328,15574.31
1329,15620.86
1330,15643.85
1331,15626.05
1332,15601.54
1333,15611.72
1334,15663.23
1335,15723.96
1336,15762.4
1337,15768.11
1338,15740.51
1339,15686.69
1340,15635.59
1341,15619.29
1342,15642.81
1343,15679.61
1344,15703.88
1345,15711.01
1346,15706.7
1347,15695.03
1348,15675.33
1349,15646.33
1350,15615.85
1351,15602.22
1352,15620.88
1353,15659.57
1354,15692.86
1355,15703.88
1356,15699.67
1357,15691.27
1358,15684.84
1359,15681.25
1360,15681.18
1361,15686.21
1362,15698.27
1363,15716.77
1364,15734.82
1365,15745.27
1366,15757.08
1367,15794.9
1368,15875.6
1369,15964.88
1370,16009.39
1371,15988.88
1372,15953.4
1373,15958.94
1374,16009.86
1375,16068.12
1376,16102.94
1377,16125.16
1378,16157.96
1379,16203.32
1380,16227.05
1381,16195.49
1382,16124.3
1383,16061.3
1384,16042.68
1385,16059.59
1386,16092.61
1387,16113.94
1388,16084.8
1389,15976.43
1390,15848.41
1391,15803.35
1392,15886.67
1393,15993.12
1394,15998.32
1395,15892.82
1396,15776.28
1397,15734.72
1398,15755.31
1399,15791.96
1400,15810.94
1401,15800.89
1402,15755.01
1403,15693.54
1404,15654.37
1405,15664.17
1406,15709.42
1407,15767.89
1408,15818.19
1409,15839.93
1410,15817.76
1411,15770.18
1412,15729.81
1413,15717.06
1414,15726.26
1415,15748.71
1416,15779.74
1417,15817.71
1418,15860.05
1419,15900.35
1420,15931.26
1421,15946.4
1422,15940.61
1423,15910.74
1424,15867.67
1425,15828.35
1426,15803.89
1427,15792.91
1428,15792.55
1429,15802.63
1430,15824.84
1431,15856.94
1432,15882.17
1433,15881.2
1434,15859.56
1435,15851.66
1436,15886.1
1437,15944.67
1438,15991.34
1439,16003.01
1440,15980.59
1441,15929.38
1442,15874.63
1443,15853.66
1444,15885.34
1445,15934.41
1446,15957.6
1447,15948.62
1448,15935.22
1449,15941.08
1450,15965.15
1451,15999.38
1452,16037.55
1453,16075.88
1454,16110.44
1455,16135.17
1456,16143.09
1457,16135.29
1458,16128.6
1459,16140.32
1460,16171.29
1461,16212.13
1462,16252.52
1463,16280.05
1464,16282.71
1465,16264.13
1466,16241.45
1467,16229.65
1468,16232.75
1469,16251.69
1470,16276.67
1471,16285.28
1472,16261.34
1473,16228.51
1474,16224.06
1475,16256.45
1476,16289.39
1477,16288.64
1478,16267.14
1479,16259.88
1480,16284.13
1481,16320.84
1482,16347.63
1483,16353.67
1484,16335.09
1485,16295.85
1486,16259.83
1487,16252.34
1488,16272.17
1489,16297.98
1490,16311.79
1491,16308.23
1492,16284.86
1493,16247.66
1494,16210.29
1495,16184.42
1496,16172.27
1497,16173.63
1498,16185.84
1499,16203.58
1500,16221.86
1501,16238
1502,16250.15
1503,16262.2
1504,16285.24
1505,16327.13
1506,16374.76
1507,16407.91
1508,16417.14
1509,16408.45
1510,16389.44
1511,16370.36
1512,16362.44
1513,16371.98
1514,16397.46
1515,16435.63
1516,16475.59
1517,16503.26
1518,16510.39
1519,16498.78
1520,16472.78
1521,16448.8
1522,16448.68
1523,16480.59
1524,16528.05
1525,16571.81
1526,16591.43
1527,16566.09
1528,16503.81
1529,16465.54
1530,16507.59
1531,16599.7
1532,16669.51
1533,16680.37
1534,16662.02
1535,16649.36
1536,16659.86
1537,16702.38
1538,16764.24
1539,16794.12
1540,16747.05
1541,16660.08
1542,16608.18
1543,16624.33
1544,16668.75
1545,16700.59
1546,16724.31
1547,16763.98
1548,16820.14
1549,16855.53
1550,16840.09
1551,16813.75
1552,16843.65
1553,16939.92
1554,17029.44
1555,17046.31
1556,17005.82
1557,16952.05
1558,16912.32
1559,16892.1
1560,16893.05
1561,16905.16
1562,16915.1
1563,16921.83
1564,16938.13
1565,16971.59
1566,17005.03
1567,17015.87
1568,17006.18
1569,17001.58
1570,17020.31
1571,17051.86
1572,17080.04
1573,17095.83
1574,17095.9
1575,17083.77
1576,17081.12
1577,17109.79
1578,17156.79
1579,17186.93
1580,17186.13
1581,17186.41
1582,17219.89
1583,17268.83
1584,17290.95
1585,17277.59
1586,17276.12
1587,17328.54
1588,17410.74
1589,17474.3
1590,17498.81
1591,17499.2
1592,17490.49
1593,17477.9
1594,17464.1
1595,17454.35
1596,17456.32
1597,17476.72
1598,17518.93
1599,17583.38
1600,17642.14
1601,17648.11
1602,17592.94
1603,17553.07
1604,17602.52
1605,17705.94
1606,17776.72
1607,17784.98
1608,17786.54
1609,17828.63
1610,17877.63
1611,17876.09
1612,17818.96
1613,17754.97
1614,17727.58
1615,17754.19
1616,17842.86
1617,17949.47
1618,17994.36
1619,17945.94
1620,17874.78
1621,17852.93
1622,17867.95
1623,17870.92
1624,17845.96
1625,17821.43
1626,17819.03
1627,17818.41
1628,17789.88
1629,17738.51
1630,17698.56
1631,17691.6
1632,17704.55
1633,17721.77
1634,17751.82
1635,17815.14
1636,17898.41
1637,17937.53
1638,17886.64
1639,17806.51
1640,17785.48
1641,17834.59
1642,17895.96
1643,17920.8
1644,17890.53
1645,17798.44
1646,17699.52
1647,17679.35
1648,17763.44
1649,17889.75
1650,17992.63
1651,18021.94
1652,17938.27
1653,17810.04
1654,17793.09
1655,17947.21
1656,18107.29
1657,18105.91
1658,17987.53
1659,17887.01
1660,17858.89
1661,17859.83
1662,17858.92
1663,17888.97
1664,17989.33
1665,18114.58
1666,18165.84
1667,18112.58
1668,18043.65
1669,18038.98
1670,18072.42
1671,18086.87
1672,18074.99
1673,18072.88
1674,18101.2
1675,18140.65
1676,18168.82
1677,18181.85
1678,18183.65
1679,18172.02
1680,18137.88
1681,18082.06
1682,18036.71
1683,18036.38
1684,18081.44
1685,18153.34
1686,18221.44
1687,18238.45
1688,18181.67
1689,18126.39
1690,18162.89
1691,18282.46
1692,18412.53
1693,18494.56
1694,18494.95
1695,18401.65
1696,18287.96
1697,18244.32
1698,18267.32
1699,18285.46
1700,18268.57
1701,18264.26
1702,18312.02
1703,18371.34
1704,18382.24
1705,18361.19
1706,18383.82
1707,18462.88
1708,18488.41
1709,18376.18
1710,18243.16
1711,18258.29
1712,18405.14
1713,18521.13
1714,18520.01
1715,18468.51
1716,18439.02
1717,18446.6
1718,18487.43
1719,18538.69
1720,18563.28
1721,18546.56
1722,18514.87
1723,18492.21
1724,18472.5
1725,18443.07
1726,18416.19
1727,18421.02
1728,18454.74
1729,18462.72
1730,18410.21
1731,18359.33
1732,18386.81
1733,18470.23
1734,18528.49
1735,18525.94
1736,18490.09
1737,18456.25
1738,18469.83
1739,18565.92
1740,18676.74
1741,18688.35
1742,18612.32
1743,18598.73
1744,18714.91
1745,18803.94
1746,18714.87
1747,18545.72
1748,18480.21
1749,18556.55
1750,18689.54
1751,18793.01
1752,18786.63
1753,18631.75
1754,18467.35
1755,18463.65
1756,18604.34
1757,18759.56
1758,18851.96
1759,18875.69
1760,18842.48
1761,18800.88
1762,18797.51
1763,18819.2
1764,18828.82
1765,18809.3
1766,18761.77
1767,18703.68
1768,18681.9
1769,18729.39
1770,18806.71
1771,18857.64
1772,18849.38
1773,18764.56
1774,18649.55
1775,18625.78
1776,18740.5
1777,18846.91
1778,18810.12
1779,18724.08
1780,18746.46
1781,18840.36
1782,18832.71
1783,18695.13
1784,18610.18
1785,18699.33
1786,18854.38
1787,18942.3
1788,18945.47
1789,18892.92
1790,18825.66
1791,18793.7
1792,18813.82
1793,18849.94
1794,18871.82
1795,18883.14
1796,18895.54
1797,18928.49
1798,19001.44
1799,19078.09
1800,19077.04
1801,18984.63
1802,18896.58
1803,18888.75
1804,18943.35
1805,19022.79
1806,19080.42
1807,19070
1808,19007.93
1809,18958.61
1810,18954.07
1811,18977.54
1812,19008.97
1813,19029.96
1814,19027.3
1815,19015.77
1816,19017.53
1817,19026.76
1818,19019.78
1819,18996.82
1820,18987.46
1821,19015.4
1822,19087.14
1823,19192.11
1824,19256.36
1825,19202.95
1826,19079.74
1827,18995.32
1828,18989.74
1829,19039.1
1830,19114.93
1831,19185.34
1832,19217.78
1833,19179.3
1834,19057.08
1835,18954.96
1836,19000.28
1837,19107.99
1838,19063.98
1839,18871.84
1840,18779.85
1841,18901.87
1842,19064.68
1843,19122.65
1844,19144.2
1845,19220.69
1846,19286.95
1847,19227.32
1848,19084.44
1849,19007.56
1850,19036.21
1851,19078.9
1852,19072.83
1853,19027.38
1854,18973.74
1855,18988.89
1856,19129.99
1857,19267.46
1858,19220.41
1859,19051.65
1860,18975.61
1861,19022.23
1862,19023.03
1863,18926.83
1864,18904.65
1865,19051.23
1866,19171.35
1867,19076.55
1868,18882.01
1869,18782.17
1870,18821.54
1871,18962.9
1872,19115.69
1873,19147.76
1874,19045.59
1875,18955.94
1876,18971.47
1877,19044.98
1878,19121.21
1879,19180.09
1880,19211.32
1881,19217.07
1882,19203.72
1883,19173.96
1884,19128.39
1885,19067
1886,18989.46
1887,18905.82
1888,18840.2
1889,18806.43
1890,18794.38
1891,18800.82
1892,18855.64
1893,18977.19
1894,19086
1895,19083.67
1896,18990.98
1897,18888.19
1898,18831.03
1899,18853.99
1900,18933.95
1901,18983.36
1902,18971.28
1903,18968.26
1904,19010.96
1905,19025.62
1906,18953.74
1907,18861.88
1908,18829.89
1909,18837.72
1910,18833.37
1911,18807.51
1912,18774.86
1913,18765.35
1914,18817.79
1915,18892.13
1916,18862.56
1917,18723.48
1918,18664.83
1919,18773.49
1920,18865.73
1921,18799.72
1922,18691.13
1923,18676.1
1924,18738.09
1925,18814.21
1926,18834.46
1927,18741.71
1928,18647.14
1929,18745.82
1930,18962.54
1931,19008.06
1932,18827.24
1933,18631.59
1934,18561.73
1935,18629.4
1936,18779.77
1937,18843.38
1938,18726.87
1939,18591.68
1940,18587.75
1941,18645.63
1942,18661.15
1943,18631.37
1944,18591.06
1945,18603.76
1946,18726.3
1947,18807.71
1948,18599.42
1949,18271.85
1950,18303.84
1951,18672.35
1952,18845.72
1953,18654.87
1954,18432.3
1955,18358
1956,18298.72
1957,18192.74
1958,18197.77
1959,18381.2
1960,18477.91
1961,18290.11
1962,18074.24
1963,18105.24
1964,18259.88
1965,18330.91
1966,18309.41
1967,18256.26
1968,18197.52
1969,18141.21
1970,18078.37
1971,17994.11
1972,17928.12
1973,17954.43
1974,18052.71
1975,18122.19
1976,18147.89
1977,18207.03
1978,18295.93
1979,18302.23
1980,18169.32
1981,17938.15
1982,17707.9
1983,17668.73
1984,17868.11
1985,18016.86
1986,17939.48
1987,17879.81
1988,18014.93
1989,18096.37
1990,17911.36
1991,17694.43
1992,17706.17
1993,17856.75
1994,17969.57
1995,17923.22
1996,17662.08
1997,17424.94
1998,17498.9
1999,17714.31
2000,17746.48
2001,17647.06
2002,17633.14
2003,17697.43
2004,17714.51
2005,17668.07
2006,17608.26
2007,17533.59
2008,17409.79
2009,17275.86
2010,17224.61
2011,17264.15
2012,17327.27
2013,17343.03
2014,17244.32
2015,17087.61
2016,17052.77
2017,17163.52
2018,17262.61
2019,17271.95
2020,17222.49
2021,17159.36
2022,17136.42
2023,17147.07
2024,17100.68
2025,16982.44
2026,16898.87
2027,16905.38
2028,16961.23
2029,17020.56
2030,17043.02
2031,16988.37
2032,16816.76
2033,16573.44
2034,16455.53
2035,16554.77
2036,16737.04
2037,16850.2
2038,16756.45
2039,16473.75
2040,16320.34
2041,16441.92
2042,16571.72
2043,16532.49
2044,16425.66
2045,16338.74
2046,16263.37
2047,16194.3
2048,16155.73
2049,16154.32
2050,16154.17
2051,16113.22
2052,15987.97
2053,15807.96
2054,15744.66
2055,15871.52
2056,16043.34
2057,16128.53
2058,16067.82
2059,15893.92
2060,15788.93
2061,15816.76
2062,15812.09
2063,15698.88
2064,15585.06
2065,15539.36
2066,15541.88
2067,15550.4
2068,15503.47
2069,15443.46
2070,15553.07
2071,15760.27
2072,15659.54
2073,15267.04
2074,15122.31
2075,15287.7
2076,15269.73
2077,14994.21
2078,14839.22
2079,14888.56
2080,14933.67
2081,14903.48
2082,14857.69
2083,14877
2084,15039.72
2085,15218.11
2086,15164.92
2087,14936.61
2088,14765.65
2089,14702.82
2090,14692.54
2091,14660.15
2092,14542.84
2093,14426.95
2094,14440.45
2095,14566.79
2096,14716.27
2097,14703.68
2098,14409.52
2099,14144.48
2100,14194.78
2101,14305.47
2102,14217.49
2103,14060.9
2104,13968.77
2105,13878.83
2106,13757.96
2107,13707.94
2108,13737.72
2109,13652.81
2110,13438.43
2111,13387.92
2112,13553.89
2113,13647.72
2114,13552.89
2115,13364.26
2116,13188.29
2117,13125.58
2118,13179.43
2119,13277.49
2120,13304.65
2121,13155.56
2122,13004.11
2123,13098.27
2124,13301.37
2125,13359.42
2126,13173.36
2127,12779.88
2128,12549.58
2129,12710.8
2130,12847.5
2131,12677.09
2132,12481.7
2133,12440.87
2134,12418.58
2135,12355.53
2136,12338.55
2137,12369.85
2138,12355.87
2139,12307.96
2140,12316.44
2141,12329.72
2142,12229.63
2143,12107.79
2144,12110.43
2145,12100.94
2146,11905.03
2147,11627.48
2148,11419.21
2149,11342.92
2150,11391.36
2151,11438.25
2152,11418.21
2153,11393.52
2154,11377.11
2155,11309.17
2156,11192.42
2157,11091.37
2158,11075.95
2159,11197.79
2160,11342.17
2161,11344.63
2162,11213.79
2163,11024.39
2164,10875.39
2165,10816.54
2166,10752.61
2167,10627.11
2168,10497.72
2169,10385.58
2170,10254.01
2171,10188.66
2172,10358.02
2173,10527.56
2174,10292.51
2175,9956.043
2176,9986.542
2177,10095.21
2178,9973.574
2179,9983.301
2180,10261
2181,10190.72
2182,9679.281
2183,9494.653
2184,9677.712
2185,9551.653
2186,9232.551
2187,9276.207
2188,9423.121
2189,9216.932
2190,8979.606
2191,9039.845
2192,9099.529
2193,8988.234
2194,8977.857
2195,9094.15
2196,9022.305
2197,8785.138
2198,8659.549
2199,8600.634
2200,8429.955
2201,8178.509
2202,7966.508
2203,7975.64
2204,8215.354
2205,8333.497
2206,8212.78
2207,8078.019
2208,8000.35
2209,7917.532
2210,7840.838
2211,7806.104
2212,7776.792
2213,7705.778
2214,7580.804
2215,7455.318
2216,7480.808
2217,7659.464
2218,7819.339
2219,7764.587
2220,7366.249
2221,6997.237
2222,7037.334
2223,7152.281
2224,7073.765
2225,7016.711
2226,6989.341
2227,6693.662
2228,6331.653
2229,6405.917
2230,6698.833
2231,6791.6
2232,6778.899
2233,6743.25
2234,6456.487
2235,6043.533
2236,6094.945
2237,6452.534
2238,6464.121
2239,6234.301
2240,6109.775
2241,6068.839
2242,6006.434
2243,5833.268
2244,5631.222
2245,5648.791
2246,5728.022
2247,5531.248
2248,5328.764
2249,5421.425
2250,5497.837
2251,5339.187
2252,5086.823
2253,4982.922
2254,5258.226
2255,5499.693
2256,5201.554
2257,4898.036
2258,4981.759
2259,4920.502
2260,4608.683
2261,4554.985
2262,4740.496
2263,4833.665
2264,4807.444
2265,4736.45
2266,4682.499
2267,4607.473
2268,4352.619
2269,4002.907
2270,3798.25
2271,3753.124
2272,3799.173
2273,3887.69
2274,3964.678
2275,3964.204
2276,3847.31
2277,3640.115
2278,3649.445
2279,3994.931
2280,3884.202
2281,3247.225
2282,3285.376
2283,3800.384
2284,3657.014
2285,3211.111
2286,3101.499
2287,3100.251
2288,3093.028
2289,3302.054
2290,3472.065
2291,3156.954
2292,2779.386
2293,2727.526
2294,2606.201
2295,2484.715
2296,2993.326
2297,3524.258
2298,3121.135
2299,2459.775
2300,2234.521
