400,23259.4
401,23223.88
402,23240.04
403,23286.78
404,23340.48
405,23379.61
406,23392.01
407,23368.25
408,23300.49
409,23204.09
410,23112.23
411,23058.24
412,23057
413,23087.79
414,23125.95
415,23150.99
416,23164.45
417,23175.1
418,23191.4
419,23216.61
420,23249.59
421,23289.05
422,23329.87
423,23358.81
424,23361.7
425,23328.85
426,23275.83
427,23227.05
428,23205.66
429,23213.45
430,23233.43
431,23248.1
432,23246.24
433,23230.07
434,23203.51
435,23170
436,23130.39
437,23084.61
438,23033.02
439,22983.83
440,22951.93
441,22952.29
442,22988.46
443,23040.83
444,23087.06
445,23108.01
446,23100.8
447,23067.82
448,23011.89
449,22942.6
450,22874.83
451,22823.47
452,22796.81
453,22791.21
454,22801.78
455,22821.64
456,22834.75
457,22822.59
458,22768.23
459,22673.91
460,22554.87
461,22426.5
462,22304.43
463,22204.63
464,22143.03
465,22127.41
466,22135.98
467,22140.35
468,22115.54
469,22067.89
470,22020.97
471,21997.82
472,22003.02
473,22018.69
474,22025.71
475,22012.33
476,21987.15
477,21962.2
478,21947.07
479,21935.4
480,21914.22
481,21871.52
482,21813.17
483,21761.37
484,21738.71
485,21749
486,21759
487,21731.21
488,21640.99
489,21522.23
490,21425.55
491,21396.78
492,21428.48
493,21478.86
494,21506.29
495,21493.81
496,21457.93
497,21417.45
498,21384.56
499,21351.78
500,21308.02
501,21245.52
502,21179.23
503,21133.61
504,21131.42
505,21164.43
506,21196.79
507,21192.11
508,21138.87
509,21071.29
510,21028.34
511,21035.09
512,21061.03
513,21061.77
514,20998.97
515,20889.36
516,20779.73
517,20715.63
518,20706.44
519,20721.49
520,20728.23
521,20706.71
522,20665.15
523,20615.64
524,20567.89
525,20520.32
526,20467.94
527,20406.4
528,20338.8
529,20272.92
530,20216.39
531,20171.08
532,20131.64
533,20092.33
534,20050.45
535,20010.69
536,19978.9
537,19957.85
538,19934.21
539,19889.48
540,19807.75
541,19703.12
542,19609.37
543,19559.79
544,19562.64
545,19594.8
546,19631.28
547,19653.83
548,19660.56
549,19652.04
550,19629.58
551,19598.18
552,19563.97
553,19532.57
554,19504.09
555,19475.25
556,19442.84
557,19405.96
558,19366.39
559,19326.08
560,19287.16
561,19252.15
562,19223.62
563,19203.28
564,19189.12
565,19178.15
566,19167.25
567,19152.12
568,19127.83
569,19089.79
570,19039.02
571,18982.01
572,18925.43
573,18877.75
574,18850.61
575,18855.86
576,18894.21
577,18929.76
578,18919.34
579,18829.34
580,18686.52
581,18541.27
582,18440.73
583,18390.67
584,18367.17
585,18346.28
586,18322.48
587,18313.53
588,18338.49
589,18399.23
590,18458.68
591,18474.6
592,18417.3
593,18309.38
594,18187.05
595,18083.66
596,18010.68
597,17968.95
598,17958.78
599,17972.13
600,17993.96
601,18009.22
602,18009.77
603,17997.38
604,17974.57
605,17944.88
606,17914.35
607,17889.38
608,17874.76
609,17867.96
610,17864.41
611,17859.47
612,17847.77
613,17823.6
614,17781.87
615,17728.14
616,17676.99
617,17642.93
618,17627.46
619,17613.7
620,17583.52
621,17531.14
622,17480.13
623,17458.22
624,17481.73
625,17519.93
626,17530.04
627,17477.12
628,17382.83
629,17294.08
630,17254.49
631,17262.96
632,17285.4
633,17287.87
634,17260.18
635,17220.3
636,17187.69
637,17170.17
638,17153.33
639,17120.3
640,17061.95
641,16993.87
642,16936.47
643,16906
644,16896.37
645,16893.96
646,16886.51
647,16873.59
648,16861.3
649,16855.18
650,16850.19
651,16832.1
652,16786.78
653,16714.69
654,16635.97
655,16571.95
656,16533.58
657,16509.84
658,16486.92
659,16456.8
660,16430.83
661,16424.42
662,16447.22
663,16476.71
664,16479.43
665,16427.02
666,16337.89
667,16255.73
668,16221.7
669,16233.78
670,16254.31
671,16245.51
672,16197.5
673,16135.06
674,16084.89
675,16061.97
676,16059.4
677,16067.93
678,16076.98
679,16072.16
680,16038.44
681,15967.8
682,15883.39
683,15817.03
684,15794.8
685,15802.98
686,15810.83
687,15790.07
688,15740.19
689,15678.5
690,15622.25
691,15583.48
692,15569.35
693,15586.42
694,15624.71
695,15651.92
696,15634.47
697,15559.85
698,15456.65
699,15358.15
700,15291.61
701,15267.25
702,15292.2
703,15364.24
704,15441
705,15469.43
706,15408.54
707,15293.76
708,15190.76
709,15158.32
710,15189.31
711,15239.05
712,15264.41
713,15250.53
714,15205.23
715,15137.12
716,15060.52
717,14996.17
718,14964.71
719,14969.78
720,14988.72
721,14996.81
722,14983.18
723,14966.8
724,14970.38
725,15004.42
726,15042.33
727,15050.62
728,15004.97
729,14920.1
730,14821.18
731,14731.77
732,14666.18
733,14635.17
734,14646.35
735,14680.03
736,14702.3
737,14681.92
738,14622.07
739,14550.11
740,14492.95
741,14459.96
742,14444.13
743,14437.78
744,14432.63
745,14419.58
746,14389.67
747,14344.83
748,14304.77
749,14290.72
750,14308.63
751,14331.17
752,14326.79
753,14278.13
754,14209.06
755,14150.82
756,14126.4
757,14126.98
758,14135.99
759,14139.13
760,14133.69
761,14120.76
762,14101.24
763,14074.65
764,14039.94
765,13996.72
766,13950.98
767,13912.25
768,13889.29
769,13880.28
770,13875.9
771,13867.13
772,13852.49
773,13837.32
774,13826.94
775,13819.92
776,13807.2
777,13779.6
778,13737.73
779,13696.13
780,13670.17
781,13662.63
782,13654.08
783,13623.01
784,13563.54
785,13504.26
786,13478.24
787,13501.58
788,13543.53
789,13565.43
790,13541.5
791,13490.42
792,13440.43
793,13412.96
794,13400.15
795,13386.2
796,13358.72
797,13323.84
798,13293.91
799,13279.59
800,13280.33
801,13290.9
802,13304.93
803,13306.31
804,13274.07
805,13191.16
806,13082.83
807,12999.97
808,12989.37
809,13039.84
810,13098.18
811,13112.89
812,13075.15
813,13012.68
814,12953.7
815,12912.44
816,12889.13
817,12883.14
818,12887.33
819,12886.86
820,12866.85
821,12826.39
822,12783.81
823,12758.53
824,12755.66
825,12757.5
826,12744.53
827,12711.27
828,12678.2
829,12668.39
830,12689.34
831,12715.33
832,12716.49
833,12676.61
834,12613.01
835,12547.96
836,12497.68
837,12461.22
838,12434.66
839,12414.49
840,12398.5
841,12384.79
842,12370.28
843,12347.53
844,12308.08
845,12249.18
846,12192.03
847,12164.09
848,12183.71
849,12225.91
850,12252.87
851,12235.31
852,12189.67
853,12147.68
854,12135.16
855,12142.84
856,12148.29
857,12132.58
858,12100.11
859,12064.93
860,12039.26
861,12021.53
862,12003.84
863,11979.68
864,11954
865,11937.48
866,11939.1
867,11952.11
868,11961.22
869,11952.4
870,11924.5
871,11883.96
872,11837.66
873,11796.98
874,11776.11
875,11787.24
876,11817.85
877,11838.81
878,11823.42
879,11780.22
880,11742.92
881,11743.14
882,11775.52
883,11806.76
884,11805.06
885,11771.04
886,11731.11
887,11710.99
888,11713.41
889,11721.95
890,11720.49
891,11707.69
892,11695.04
893,11693.71
894,11700.34
895,11698.45
896,11672.12
897,11624.48
898,11576.48
899,11548.89
900,11546.02
901,11556.38
902,11567.96
903,11570.11
904,11553.49
905,11509.58
906,11446.41
907,11388.53
908,11360.21
909,11363.5
910,11377.92
911,11382.6
912,11368.99
913,11341.24
914,11304.11
915,11264.42
916,11231.05
917,11212.49
918,11205.5
919,11194.77
920,11165.19
921,11118.53
922,11073.84
923,11050.21
924,11049.12
925,11054.12
926,11048.51
927,11026.46
928,10993.03
929,10953.81
930,10915.27
931,10884.79
932,10869.36
933,10867.66
934,10870.36
935,10868.02
936,10855.79
937,10833.13
938,10800.16
939,10766.79
940,10751.89
941,10772.95
942,10817.02
943,10844.21
944,10816.51
945,10742.27
946,10669.29
947,10643.52
948,10663.57
949,10689.53
950,10682.97
951,10643.21
952,10598.87
953,10577.76
954,10586.53
955,10616.31
956,10657.52
957,10695.83
958,10713.6
959,10695.01
960,10646.01
961,10586.73
962,10536.5
963,10503.69
964,10490.02
965,10496.2
966,10514.46
967,10532.19
968,10537.65
969,10527.13
970,10501.14
971,10461.77
972,10423.69
973,10407.6
974,10429.43
975,10469.68
976,10493.14
977,10471.09
978,10417.56
979,10363.97
980,10335.87
981,10324.3
982,10307.62
983,10269.84
984,10224.99
985,10196.96
986,10202.97
987,10228.45
988,10249.52
989,10247.99
990,10229.74
991,10206.93
992,10189.08
993,10175.82
994,10164.47
995,10153.86
996,10147.64
997,10150.51
998,10161.88
999,10166.06
1000,10144.7
1001,10090.2
1002,10022.06
1003,9963.95
1004,9933.147
1005,9932.856
1006,9964.38
1007,10023.06
1008,10076.78
1009,10085.57
1010,10025.15
1011,9933.869
1012,9865.631
1013,9857.059
1014,9885.22
1015,9914.361
1016,9919.079
1017,9904.519
1018,9881.468
1019,9858.638
1020,9839.485
1021,9826.64
1022,9822.176
1023,9826.964
1024,9841.706
1025,9865.716
1026,9895.753
1027,9928.237
1028,9955.049
1029,9960.97
1030,9930.704
1031,9869.625
1032,9810.429
1033,9786.571
1034,9802.567
1035,9830.758
1036,9842.908
1037,9831.952
1038,9810.492
1039,9791.169
1040,9776.468
1041,9761.038
1042,9740.292
1043,9720.537
1044,9715.013
1045,9734.512
1046,9767.649
1047,9791.586
1048,9787.67
1049,9766.114
1050,9749.136
1051,9754.088
1052,9772.584
1053,9787.767
1054,9787.12
1055,9775.93
1056,9764.069
1057,9757.949
1058,9753.015
1059,9742.537
1060,9724.411
1061,9707.938
1062,9704.074
1063,9717.452
1064,9740.576
1065,9764.611
1066,9781.926
1067,9786.679
1068,9773.446
1069,9744.63
1070,9711.749
1071,9686.619
1072,9677.361
1073,9688.779
1074,9724.645
1075,9777.181
1076,9830.616
1077,9871.265
1078,9905.217
1079,9948.938
1080,10016.02
1081,10101.28
1082,10192.21
1083,10275.26
1084,10332.15
1085,10343.25
1086,10301.7
1087,10242.66
1088,10209.81
1089,10225.18
1090,10259.48
1091,10276.19
1092,10256.14
1093,10210.18
1094,10152.08
1095,10094.08
1096,10046.51
1097,10018.98
1098,10009.27
1099,10004.19
1100,9990.704
1101,9962.518
1102,9917.869
1103,9856.936
1104,9794.783
1105,9753.607
1106,9750.662
1107,9776.522
1108,9812.849
1109,9844.278
1110,9866.261
1111,9876.704
1112,9874.296
1113,9859.642
1114,9833.679
1115,9800.407
1116,9769.066
1117,9749.262
1118,9746.373
1119,9760.753
1120,9791.737
1121,9826.479
1122,9842.076
1123,9818.091
1124,9761.18
1125,9693.389
1126,9634.287
1127,9587.197
1128,9549.261
1129,9517.757
1130,9490.528
1131,9465.57
1132,9439.41
1133,9404.844
1134,9354.224
1135,9289.968
1136,9231.414
1137,9198.85
1138,9193.983
1139,9197.741
1140,9191.12
1141,9171.47
1142,9148.321
1143,9131.16
1144,9126.762
1145,9140.601
1146,9173.535
1147,9203.814
1148,9202.778
1149,9156.315
1150,9094.246
1151,9054.431
1152,9053.618
1153,9068.691
1154,9072.686
1155,9057.244
1156,9036.472
1157,9024.611
1158,9017.672
1159,8997.58
1160,8949.52
1161,8888.098
1162,8842.216
1163,8833.112
1164,8845.555
1165,8853.61
1166,8842.121
1167,8825.801
1168,8824.307
1169,8842.244
1170,8858.943
1171,8852.013
1172,8816.103
1173,8763.563
1174,8707.576
1175,8661.461
1176,8638.63
1177,8648.863
1178,8679.581
1179,8709.685
1180,8723.029
1181,8720.749
1182,8707.733
1183,8690.889
1184,8681.151
1185,8689.377
1186,8708.007
1187,8707.565
1188,8660.853
1189,8588.154
1190,8543.554
1191,8570.242
1192,8633.023
1193,8664.296
1194,8621.329
1195,8552.633
1196,8527.278
1197,8574.379
1198,8641.971
1199,8669.698
1200,8641.957
1201,8595.426
1202,8567.449
1203,8566.67
1204,8582.321
1205,8603.456
1206,8620.261
1207,8623.339
1208,8607.634
1209,8582.006
1210,8558.061
1211,8543.316
1212,8538.159
1213,8542.179
1214,8553.169
1215,8567.16
1216,8580.047
1217,8587.195
1218,8583.671
1219,8567.011
1220,8546.231
1221,8533.668
1222,8537.31
1223,8554.788
1224,8582.125
1225,8611.552
1226,8630.434
1227,8627.309
1228,8610.414
1229,8601.848
1230,8618.557
1231,8644.889
1232,8653.091
1233,8627.374
1234,8587.404
1235,8559.121
1236,8552.714
1237,8554.315
1238,8548.941
1239,8536.695
1240,8529.975
1241,8538.956
1242,8555.976
1243,8565.808
1244,8558.917
1245,8544.637
1246,8536.099
1247,8539.993
1248,8552.418
1249,8568.419
1250,8581.855
1251,8585.581
1252,8574.54
1253,8558.815
1254,8555.039
1255,8571.609
1256,8589.77
1257,8585.484
1258,8554.555
1259,8524.443
1260,8523.497
1261,8548.226
1262,8569.365
1263,8562.231
1264,8536.687
1265,8516.329
1266,8516.786
1267,8530.209
1268,8544.604
1269,8554.164
1270,8561.735
1271,8570.397
1272,8577.752
1273,8577.614
1274,8565.987
1275,8550.768
1276,8543.738
1277,8550.08
1278,8559.53
1279,8560.056
1280,8552.476
1281,8551.961
1282,8571.713
1283,8599.911
1284,8611.334
1285,8590.44
1286,8559.21
1287,8548.362
1288,8569.293
1289,8600.438
1290,8618.254
1291,8619.479
1292,8617.186
1293,8622.395
1294,8631.076
1295,8633.685
1296,8626.696
1297,8621.708
1298,8632.109
1299,8655.16
1300,8669.797
1301,8657.504
1302,8631.563
1303,8621.845
1304,8647.272
1305,8687.505
1306,8713.75
1307,8712.304
1308,8692.403
1309,8665.589
1310,8647.91
1311,8658.548
1312,8709.17
1313,8775.608
1314,8823.247
1315,8834.224
1316,8823.172
1317,8807.987
1318,8797.92
1319,8794.847
1320,8799.644
1321,8808.651
1322,8816.557
1323,8820.328
1324,8822.286
1325,8825.421
1326,8830.41
1327,8835.595
1328,8840.034
1329,8848.479
1330,8868.129
1331,8901.183
1332,8936.43
1333,8960.745
1334,8970.189
1335,8971.058
1336,8969.243
1337,8963.186
1338,8947.827
1339,8922.682
1340,8900.459
1341,8895.826
1342,8909.511
1343,8925.929
1344,8930.062
1345,8919.147
1346,8896.384
1347,8868.281
1348,8850.88
1349,8861.369
1350,8898.011
1351,8937.045
1352,8956.304
1353,8956.269
1354,8948.116
1355,8940.911
1356,8937.611
1357,8940.053
1358,8948.073
1359,8959.34
1360,8970.844
1361,8975.746
1362,8965.541
1363,8941.014
1364,8926.174
1365,8947.353
1366,9002.328
1367,9061.072
1368,9097.065
1369,9112.473
1370,9120.193
1371,9131.183
1372,9152.214
1373,9188.355
1374,9225.115
1375,9231.971
1376,9188.526
1377,9126.161
1378,9091.67
1379,9105.597
1380,9143.668
1381,9178.81
1382,9203.208
1383,9221.623
1384,9235.353
1385,9232.238
1386,9197.53
1387,9136.994
1388,9083.153
1389,9065.514
1390,9073.769
1391,9078.205
1392,9059.642
1393,9026.896
1394,8993.236
1395,8969.807
1396,8965.739
1397,8986.263
1398,9015.729
1399,9031.537
1400,9024.587
1401,9009.99
1402,9003.935
1403,9005.096
1404,9000.732
1405,8984.913
1406,8976.027
1407,8996.948
1408,9044.534
1409,9084.863
1410,9087.334
1411,9056.561
1412,9011.825
1413,8971.318
1414,8950.713
1415,8963.559
1416,8997.083
1417,9018.941
1418,9006.617
1419,8977.748
1420,8959.389
1421,8965.08
1422,8991.258
1423,9031.32
1424,9065.098
1425,9066.576
1426,9027.424
1427,8977.147
1428,8948.649
1429,8953.43
1430,8987.433
1431,9041.279
1432,9087.511
1433,9095.479
1434,9065.435
1435,9033.607
1436,9032.033
1437,9053.556
1438,9076.06
1439,9086.147
1440,9086.517
1441,9081.513
1442,9074.604
1443,9068.725
1444,9066.222
1445,9067.75
1446,9073.538
1447,9081.445
1448,9087.139
1449,9088.074
1450,9090.233
1451,9101.868
1452,9123.379
1453,9144.533
1454,9156.878
1455,9170.133
1456,9201.781
1457,9256.189
1458,9311.836
1459,9345.389
1460,9347.809
1461,9318.983
1462,9266.155
1463,9217.043
1464,9201.562
1465,9222.656
1466,9259.885
1467,9294.497
1468,9318.056
1469,9325.05
1470,9320.936
1471,9324.04
1472,9348.083
1473,9376.27
1474,9381.321
1475,9354.453
1476,9315.663
1477,9285.871
1478,9273.278
1479,9280.088
1480,9301.843
1481,9320.716
1482,9319.363
1483,9303.426
1484,9292.47
1485,9296.336
1486,9299.103
1487,9282.199
1488,9249.068
1489,9219.804
1490,9209.111
1491,9212.636
1492,9222.16
1493,9230.033
1494,9229.124
1495,9216.061
1496,9202.526
1497,9203.576
1498,9222.086
1499,9247.689
1500,9269.483
1501,9277.359
1502,9261.805
1503,9227.252
1504,9195.694
1505,9187.903
1506,9211.045
1507,9267.196
1508,9340.944
1509,9392.02
1510,9386.741
1511,9346.58
1512,9314.513
1513,9314.432
1514,9340.048
1515,9381.196
1516,9419.271
1517,9432.178
1518,9415.378
1519,9394.188
1520,9393.623
1521,9413.447
1522,9441.77
1523,9467.871
1524,9483.317
1525,9481.411
1526,9467.806
1527,9454.105
1528,9450.355
1529,9463.609
1530,9498.401
1531,9541.019
1532,9568.898
1533,9570.147
1534,9552.728
1535,9526.928
1536,9504.291
1537,9496.938
1538,9510.137
1539,9536.757
1540,9568.212
1541,9594.809
1542,9606.454
1543,9603.708
1544,9605.462
1545,9627.668
1546,9651.521
1547,9643.334
1548,9599.864
1549,9566.77
1550,9585.629
1551,9641.354
1552,9696.312
1553,9729.051
1554,9741.87
1555,9740.38
1556,9738.407
1557,9752.253
1558,9777.721
1559,9784.063
1560,9748.551
1561,9697.639
1562,9672.243
1563,9686.781
1564,9725.829
1565,9771.852
1566,9805.423
1567,9807.828
1568,9787.492
1569,9778.771
1570,9804.886
1571,9847.197
1572,9879.055
1573,9889.509
1574,9880.036
1575,9858.133
1576,9846.715
1577,9868.944
1578,9919.764
1579,9976.064
1580,10016.23
1581,10022.6
1582,9983.556
1583,9934.435
1584,9933.528
1585,9993.428
1586,10050.7
1587,10048.49
1588,10015.2
1589,10010.54
1590,10056.32
1591,10126.53
1592,10195.46
1593,10252.72
1594,10292.17
1595,10310.45
1596,10306.73
1597,10285.58
1598,10267.97
1599,10275.85
1600,10302.75
1601,10322.88
1602,10318.67
1603,10291.11
1604,10247.04
1605,10219.67
1606,10254.08
1607,10346.08
1608,10417.62
1609,10403.07
1610,10333.16
1611,10268.33
1612,10239.21
1613,10245.85
1614,10280.98
1615,10318.03
1616,10328.56
1617,10312.45
1618,10289.02
1619,10275.35
1620,10282.93
1621,10318.24
1622,10355.83
1623,10357.11
1624,10322.93
1625,10306.83
1626,10344.99
1627,10382.71
1628,10345.93
1629,10249.39
1630,10182.58
1631,10197.66
1632,10246.53
1633,10271.53
1634,10268.51
1635,10260.72
1636,10264.17
1637,10283.7
1638,10318.63
1639,10346.56
1640,10340.45
1641,10308.45
1642,10290.01
1643,10307.05
1644,10332.95
1645,10337.19
1646,10323.54
1647,10313.09
1648,10314.29
1649,10316.96
1650,10311.83
1651,10299.94
1652,10285.91
1653,10286.01
1654,10325.9
1655,10405.27
1656,10464.04
1657,10444.49
1658,10366.89
1659,10285.05
1660,10232.34
1661,10217.1
1662,10241.06
1663,10288.19
1664,10338.59
1665,10372.96
1666,10372.6
1667,10337.8
1668,10301.62
1669,10292.36
1670,10297.32
1671,10292.37
1672,10281.73
1673,10294.37
1674,10345.14
1675,10413.68
1676,10474.99
1677,10507.6
1678,10492.93
1679,10455
1680,10466.08
1681,10560.48
1682,10648.17
1683,10629.42
1684,10537.35
1685,10475.77
1686,10480.23
1687,10489.92
1688,10455.63
1689,10399.59
1690,10360.2
1691,10365.78
1692,10437.61
1693,10553.43
1694,10620.3
1695,10570.47
1696,10477.82
1697,10448.2
1698,10484.71
1699,10515.87
1700,10507.51
1701,10496.27
1702,10518.8
1703,10574.88
1704,10651.64
1705,10714.34
1706,10711.47
1707,10631.77
1708,10541.45
1709,10503.82
1710,10522.13
1711,10580.22
1712,10653.51
1713,10710.9
1714,10736.88
1715,10745.97
1716,10753.04
1717,10757.89
1718,10755.9
1719,10745.47
1720,10727.36
1721,10706.43
1722,10694.71
1723,10700.97
1724,10715.58
1725,10724.34
1726,10721.47
1727,10707.15
1728,10686.11
1729,10670.13
1730,10665.98
1731,10657.87
1732,10628.21
1733,10598.98
1734,10614.95
1735,10675.29
1736,10716.6
1737,10701.45
1738,10690.64
1739,10750.26
1740,10826.21
1741,10809.27
1742,10701.68
1743,10628.82
1744,10661.88
1745,10720.65
1746,10720.8
1747,10695.55
1748,10717.87
1749,10780.42
1750,10808.18
1751,10770.17
1752,10720.92
1753,10711.25
1754,10735.46
1755,10773.22
1756,10810.7
1757,10838.21
1758,10852.08
1759,10856.51
1760,10855.38
1761,10850.21
1762,10841.83
1763,10829.71
1764,10813.12
1765,10798.87
1766,10800.4
1767,10821.61
1768,10848.04
1769,10867.45
1770,10885.67
1771,10910.39
1772,10920.54
1773,10880.05
1774,10803.18
1775,10763.87
1776,10799.99
1777,10851.5
1778,10860.7
1779,10864.9
1780,10926.37
1781,11006.37
1782,10996.03
1783,10886.69
1784,10815.03
1785,10864.26
1786,10925.56
1787,10881.12
1788,10785.57
1789,10755.73
1790,10801.54
1791,10847.37
1792,10858.76
1793,10869.88
1794,10908.13
1795,10959.49
1796,11000.6
1797,11001.47
1798,10932.96
1799,10828.33
1800,10771.68
1801,10799.93
1802,10872.62
1803,10945.97
1804,10987.68
1805,10976.04
1806,10944.87
1807,10946.49
1808,10973.32
1809,10972.19
1810,10935.02
1811,10920.75
1812,10962.69
1813,11008.08
1814,11002.92
1815,10970.07
1816,10956.38
1817,10974.91
1818,11016.11
1819,11060.95
1820,11079.56
1821,11060.41
1822,11034.55
1823,11029.25
1824,11030.16
1825,11014.98
1826,10990.23
1827,10976.78
1828,10986.64
1829,11023.26
1830,11070.75
1831,11081.98
1832,11037.9
1833,11013.09
1834,11075.5
1835,11152.73
1836,11133.24
1837,11033.59
1838,10950.91
1839,10928.42
1840,10947.46
1841,10980.46
1842,10988.9
1843,10954.08
1844,10931.35
1845,10977.33
1846,11050.31
1847,11074.57
1848,11044.6
1849,11003.5
1850,10986.78
1851,11019.67
1852,11097.48
1853,11157.43
1854,11156.79
1855,11146.81
1856,11183.52
1857,11224.99
1858,11199.51
1859,11128.99
1860,11093.68
1861,11104.22
1862,11096.32
1863,11040.07
1864,10972.2
1865,10934.89
1866,10966.3
1867,11082.42
1868,11190.76
1869,11180.89
1870,11089.57
1871,11026.16
1872,11017.4
1873,11020.61
1874,11033.68
1875,11111.27
1876,11241.71
1877,11263.35
1878,11079.29
1879,10887.9
1880,10902.66
1881,11044.98
1882,11144.35
1883,11169.92
1884,11169.66
1885,11159.4
1886,11125.9
1887,11074.33
1888,11036.43
1889,11028.23
1890,11028.53
1891,11022.64
1892,11033.18
1893,11075.39
1894,11084.04
1895,10986.79
1896,10881.67
1897,10938.29
1898,11086.97
1899,11080.66
1900,10900.58
1901,10792.13
1902,10876.23
1903,11039.07
1904,11158.31
1905,11147.84
1906,10973.35
1907,10778.69
1908,10719.57
1909,10766.78
1910,10831.47
1911,10898.17
1912,10987.84
1913,11073.28
1914,11091.22
1915,11027.56
1916,10923.96
1917,10831.93
1918,10813.53
1919,10887.28
1920,10971.51
1921,10994.38
1922,10961.03
1923,10898.94
1924,10867.07
1925,10917.29
1926,10985.82
1927,10974.36
1928,10939.14
1929,11016.01
1930,11134.86
1931,11064.57
1932,10812.82
1933,10655.57
1934,10698.05
1935,10766.45
1936,10761.58
1937,10785.5
1938,10893.41
1939,10938.72
1940,10810.73
1941,10676.75
1942,10719.97
1943,10843.38
1944,10878.95
1945,10830.41
1946,10773.8
1947,10728.55
1948,10683.23
1949,10675.79
1950,10777.7
1951,10929.92
1952,10943.97
1953,10787.69
1954,10639.79
1955,10603.01
1956,10628.28
1957,10672.36
1958,10736.07
1959,10809.2
1960,10834.84
1961,10778.48
1962,10716.29
1963,10720.23
1964,10724.25
1965,10648.34
1966,10572.95
1967,10613.67
1968,10688.96
1969,10643.57
1970,10522.12
1971,10475.8
1972,10506.91
1973,10514.85
1974,10501.54
1975,10557.07
1976,10666.38
1977,10701.48
1978,10620.98
1979,10501.45
1980,10405.36
1981,10361.25
1982,10384.44
1983,10470.86
1984,10582.57
1985,10611.75
1986,10511.31
1987,10419.19
1988,10443.16
1989,10500.51
1990,10492.72
1991,10402.47
1992,10256.16
1993,10189.58
1994,10314.44
1995,10457.3
1996,10399.59
1997,10217.04
1998,10085
1999,10092.13
2000,10265.84
2001,10436.56
2002,10370.76
2003,10173.03
2004,10114.39
2005,10175.41
2006,10163.49
2007,10060.36
2008,9971.615
2009,9967.371
2010,10081.04
2011,10225.32
2012,10218.59
2013,10093.12
2014,10080.06
2015,10192.72
2016,10215.33
2017,10119.94
2018,10099.27
2019,10204.82
2020,10302.11
2021,10292.97
2022,10144.09
2023,9927.266
2024,9851.947
2025,9953.848
2026,9997.219
2027,9901.076
2028,9860.674
2029,9930.088
2030,9891.973
2031,9698.503
2032,9637.026
2033,9817.901
2034,9974.08
2035,9940.921
2036,9818.058
2037,9716.299
2038,9711.874
2039,9799.141
2040,9820.491
2041,9704.46
2042,9585.922
2043,9548.089
2044,9521.103
2045,9471.267
2046,9474.698
2047,9543.146
2048,9532.145
2049,9397.353
2050,9332.971
2051,9426.359
2052,9496.212
2053,9441.654
2054,9380.694
2055,9392.88
2056,9435.794
2057,9458.505
2058,9420.308
2059,9323.338
2060,9243.846
2061,9203.344
2062,9117.216
2063,9007
2064,9082.36
2065,9318.488
2066,9302.433
2067,8958.724
2068,8755.762
2069,8871.81
2070,9022.661
2071,9060.974
2072,9061.826
2073,9064.71
2074,9048.115
2075,9002.089
2076,8935.454
2077,8896.902
2078,8968.228
2079,9079.061
2080,9026.39
2081,8853.747
2082,8807.755
2083,8894.083
2084,8934.457
2085,8897.292
2086,8853.23
2087,8812.585
2088,8749.725
2089,8675.167
2090,8617.379
2091,8581.389
2092,8559.869
2093,8541.264
2094,8514.012
2095,8477.711
2096,8440.519
2097,8433.068
2098,8472.775
2099,8485.845
2100,8401.06
2101,8252.326
2102,8110.831
2103,8087.072
2104,8221.512
2105,8348.297
2106,8334.216
2107,8194.955
2108,8016.443
2109,7975.316
2110,8092.573
2111,8135.553
2112,8030.275
2113,7934.2
2114,7913.574
2115,7919.304
2116,7902.709
2117,7824.191
2118,7694.702
2119,7565.001
2120,7514.689
2121,7616.525
2122,7751.678
2123,7752.244
2124,7725.417
2125,7816.158
2126,7835.48
2127,7620.494
2128,7488.889
2129,7657.573
2130,7720.233
2131,7461.568
2132,7350.048
2133,7572.916
2134,7663.438
2135,7443.008
2136,7215.226
2137,7146.68
2138,7213.305
2139,7284.522
2140,7174.168
2141,6987.953
2142,6981.193
2143,7094.724
2144,7144.498
2145,7119.582
2146,7068.508
2147,7023.765
2148,6996.167
2149,6942.662
2150,6838.983
2151,6726.79
2152,6633.404
2153,6547.854
2154,6485.864
2155,6497.837
2156,6580.223
2157,6671.618
2158,6631.675
2159,6321.44
2160,6032.988
2161,6156.212
2162,6459.033
2163,6593.938
2164,6592.88
2165,6562.259
2166,6565.166
2167,6577.321
2168,6431.244
2169,6159.829
2170,6062.398
2171,6122.922
2172,6046.422
2173,5895.787
2174,5916.678
2175,5924.745
2176,5653.532
2177,5387.434
2178,5427.017
2179,5589.564
2180,5686.653
2181,5723.232
2182,5714.209
2183,5654.165
2184,5558.607
2185,5462.325
2186,5364.644
2187,5251.127
2188,5184.221
2189,5219.237
2190,5221.44
2191,5095.514
2192,5017.692
2193,5090.305
2194,5187.136
2195,5218.399
2196,5169.817
2197,5027.675
2198,4803.912
2199,4766.903
2200,5162.025
2201,5400.198
2202,4982.751
2203,4588.82
2204,4664.686
2205,4728.164
2206,4608.618
2207,4644.001
2208,4770.685
2209,4637.237
2210,4433.879
2211,4521.667
2212,4726.535
2213,4764.961
2214,4516.977
2215,4083.115
2216,3885.103
2217,4016.533
2218,4197.914
2219,4353.156
2220,4532.097
2221,4639.732
2222,4565.593
2223,4360.021
2224,4132.968
2225,4037.911
2226,4077.249
2227,4063.812
2228,3943.954
2229,3785.784
2230,3733.27
2231,3870.191
2232,3905.028
2233,3633.711
2234,3263.437
2235,3021.591
2236,3069.447
2237,3289.285
2238,3391.765
2239,3370.993
2240,3334.537
2241,3339.477
2242,3388.154
2243,3395.977
2244,3328.542
2245,3226.314
2246,3164.317
2247,3210.345
2248,3265.872
2249,3203.019
2250,2997.351
2251,2753.498
2252,2741.699
2253,2882.784
2254,2812.746
2255,2673.251
2256,2751.641
2257,2807.898
2258,2643.012
2259,2463.596
2260,2402.182
2261,2428.718
2262,2411.027
2263,2237.381
2264,2238.295
2265,2595.105
2266,2688.548
2267,2342.417
2268,2155.367
2269,2185.188
2270,2098.637
2271,1944.283
2272,1869.39
2273,1858.637
2274,1909.862
2275,2078.035
2276,2266.098
2277,2276.667
2278,2077.948
2279,1776.085
2280,1685.857
2281,1847.185
2282,1850.395
2283,1724.588
2284,1796.9
2285,1933.317
2286,1918.755
2287,1825.712
2288,1725.595
2289,1621.195
2290,1571.276
2291,1637.727
2292,1669.151
2293,1557.19
2294,1469.299
2295,1462.264
2296,1421.009
2297,1300.947
2298,1155.45
2299,1251.955
2300,1544.5
