400,45411.54
401,45401.4
402,45340.64
403,45268.62
404,45229.7
405,45253.52
406,45302.1
407,45317.96
408,45248.64
409,45112.46
410,44982.13
411,44931.07
412,44986.55
413,45086.87
414,45160.43
415,45150.16
416,45074.9
417,44978.55
418,44903.49
419,44868.79
420,44873.73
421,44916.91
422,44985.87
423,45044.81
424,45055.19
425,44989.36
426,44880.95
427,44785.05
428,44753.36
429,44779.14
430,44804.33
431,44769.53
432,44648.59
433,44485.94
434,44334.89
435,44240.77
436,44205.03
437,44213.76
438,44252.49
439,44296.4
440,44311.78
441,44264.99
442,44148.04
443,44005.04
444,43886.2
445,43830.35
446,43817.8
447,43809.82
448,43770.05
449,43695.29
450,43608.48
451,43533.01
452,43481.42
453,43446.54
454,43419.15
455,43388.66
456,43338.19
457,43249.09
458,43105.94
459,42932.07
460,42777.09
461,42690.13
462,42679.17
463,42689.24
464,42660.3
465,42552.99
466,42402.5
467,42260.95
468,42174.75
469,42139.27
470,42121.9
471,42090.46
472,42032.05
473,41957.19
474,41877.75
475,41803.69
476,41739.82
477,41689.98
478,41656.21
479,41627.8
480,41588.92
481,41524.67
482,41438.04
483,41348.37
484,41275.41
485,41226.68
486,41185.56
487,41132.63
488,41055.44
489,40973.29
490,40914.58
491,40903.86
492,40922.76
493,40925.15
494,40865.63
495,40737.95
496,40589.16
497,40469.95
498,40411.95
499,40390.61
500,40371.11
501,40323.51
502,40250.33
503,40167.85
504,40091.96
505,40031.77
506,39990.36
507,39970.52
508,39969.29
509,39973.13
510,39967.44
511,39938.53
512,39876.33
513,39771.67
514,39618.35
515,39437.6
516,39265.59
517,39137.66
518,39067.38
519,39044.12
520,39056.07
521,39082.81
522,39084.5
523,39018.8
524,38858.93
525,38653.44
526,38473.55
527,38383.52
528,38371.66
529,38378.46
530,38345.16
531,38257.1
532,38154.3
533,38079.94
534,38055.55
535,38049.14
536,38020.75
537,37938.34
538,37810.98
539,37661.14
540,37510.99
541,37380.37
542,37287.52
543,37249.96
544,37262.39
545,37290.81
546,37299.63
547,37264.1
548,37185.88
549,37070.61
550,36927.95
551,36788.12
552,36687.64
553,36658.98
554,36691.73
555,36749.18
556,36794.78
557,36803.49
558,36763.51
559,36663.92
560,36509.47
561,36338.93
562,36195.31
563,36110.61
564,36070.23
565,36047.11
566,36016.24
567,35969.74
568,35908.62
569,35834.02
570,35747.94
571,35653.23
572,35552.84
573,35455.71
574,35381.3
575,35350.02
576,35368.44
577,35398.19
578,35391.86
579,35312.1
580,35184.97
581,35061.3
582,34987.61
583,34954.11
584,34910.64
585,34807.91
586,34651.25
587,34515.12
588,34477.79
589,34561.83
590,34664.21
591,34665.12
592,34483.51
593,34199.95
594,33937.16
595,33803.2
596,33792.13
597,33843.09
598,33896.73
599,33921.22
600,33907.93
601,33849.24
602,33751.09
603,33638.9
604,33539.48
605,33470.93
606,33429.63
607,33408.63
608,33400.76
609,33397.97
610,33391.95
611,33374.93
612,33343.28
613,33295.54
614,33230.9
615,33161.06
616,33108.22
617,33094.25
618,33115.22
619,33130.75
620,33097.97
621,32994.73
622,32847.88
623,32691.29
624,32554.34
625,32448.36
626,32379.93
627,32352.74
628,32348.98
629,32341.34
630,32304.73
631,32244.26
632,32187.31
633,32160.8
634,32164.94
635,32168.14
636,32137.3
637,32059.13
638,31958.31
639,31863.75
640,31795.14
641,31743.01
642,31692.14
643,31630.12
644,31559.68
645,31488.63
646,31424.76
647,31375.98
648,31350.25
649,31354.43
650,31376.14
651,31386.29
652,31355.88
653,31276.64
654,31168.15
655,31051.87
656,30944.95
657,30855.53
658,30790.6
659,30751.47
660,30720.41
661,30675.68
662,30601.51
663,30514.92
664,30444.19
665,30413.34
666,30407.82
667,30392.21
668,30333.32
669,30235.39
670,30133.66
671,30063.3
672,30030.16
673,30003.72
674,29951.53
675,29862.43
676,29765.14
677,29692.61
678,29663.25
679,29653.76
680,29633.53
681,29580.61
682,29511.5
683,29453.44
684,29428.68
685,29425.16
686,29416.04
687,29376.77
688,29308.17
689,29227.23
690,29150.76
691,29087.24
692,29037.33
693,29001.34
694,28975.61
695,28951.12
696,28918.53
697,28870.16
698,28801.51
699,28708.48
700,28595.47
701,28491.54
702,28430.02
703,28431.42
704,28461.43
705,28471.15
706,28420.92
707,28329.67
708,28239.48
709,28187.94
710,28169.08
711,28152.13
712,28107.86
713,28034.15
714,27950.57
715,27876.84
716,27823.23
717,27789.38
718,27774.28
719,27770.62
720,27761.32
721,27728.62
722,27666.13
723,27591.95
724,27527.25
725,27485.77
726,27458.76
727,27433.27
728,27398.66
729,27354.07
730,27301.28
731,27242.38
732,27181.44
733,27123.28
734,27071.45
735,27018.43
736,26950.95
737,26857.38
738,26747.68
739,26646.96
740,26579.41
741,26545.89
742,26525.45
743,26496.75
744,26451.8
745,26399.06
746,26348
747,26304.09
748,26266.38
749,26233.34
750,26204.97
751,26184.64
752,26176.17
753,26179.29
754,26181.88
755,26169.76
756,26132.67
757,26075.57
758,26007.17
759,25935.63
760,25866.57
761,25804.78
762,25754.4
763,25715.2
764,25685.13
765,25661.35
766,25633.75
767,25588.16
768,25512.25
769,25417.73
770,25333.38
771,25286.77
772,25278.24
773,25283.66
774,25278.65
775,25254.75
776,25221.35
777,25188.55
778,25156.67
779,25112.1
780,25040.47
781,24943.36
782,24850.51
783,24794.28
784,24788.75
785,24807.61
786,24819.26
787,24802.39
788,24763.8
789,24715.11
790,24665.7
791,24617.36
792,24570.22
793,24523.88
794,24475.6
795,24422.04
796,24361.4
797,24300.15
798,24247.55
799,24211.99
800,24196.16
801,24200.38
802,24222.01
803,24233.09
804,24192.91
805,24066.95
806,23886.13
807,23721.15
808,23638.12
809,23636.98
810,23669.71
811,23688.94
812,23673.54
813,23624.85
814,23545.5
815,23450.63
816,23368.03
817,23325.01
818,23321.03
819,23322.64
820,23295.27
821,23229.52
822,23150.55
823,23085.75
824,23048.29
825,23028.78
826,23015.88
827,23000.7
828,22978.91
829,22946.7
830,22902.03
831,22846.72
832,22783.06
833,22714.14
834,22644.95
835,22580.75
836,22526.92
837,22489.26
838,22473.58
839,22479.99
840,22489.98
841,22481.36
842,22438.69
843,22371.41
844,22294.74
845,22221.71
846,22156.31
847,22100.17
848,22053.54
849,22010.24
850,21962.18
851,21904.13
852,21846.41
853,21804.46
854,21790.48
855,21797.05
856,21809.43
857,21813.96
858,21803.95
859,21775.6
860,21727.03
861,21670.45
862,21624.51
863,21604.33
864,21595.79
865,21570.21
866,21502.97
867,21406.97
868,21315.48
869,21258.46
870,21230.99
871,21207.79
872,21166.09
873,21113.7
874,21077.62
875,21082.03
876,21113.5
877,21133.38
878,21105.84
879,21037.68
880,20966.15
881,20926.73
882,20921.17
883,20925.72
884,20917.41
885,20894.32
886,20871.28
887,20862.32
888,20860.84
889,20842.99
890,20786.42
891,20703.32
892,20635.98
893,20625.14
894,20665.41
895,20709.75
896,20711.79
897,20664.68
898,20598.47
899,20543.58
900,20509.95
901,20487.9
902,20467.16
903,20440.56
904,20404.01
905,20354.04
906,20298.45
907,20256.26
908,20245.99
909,20263.31
910,20280.83
911,20271.07
912,20227.96
913,20167.29
914,20105.4
915,20047.94
916,19989.66
917,19925.19
918,19859.25
919,19806.95
920,19783.07
921,19784.96
922,19792.01
923,19783.46
924,19752.27
925,19705.31
926,19649.93
927,19589.33
928,19522.55
929,19448.83
930,19375.39
931,19317.36
932,19289.4
933,19289.79
934,19301.01
935,19305.27
936,19292.42
937,19259.48
938,19204.38
939,19137.26
940,19079.41
941,19051.17
942,19048.9
943,19047.75
944,19023.66
945,18977.22
946,18930.03
947,18902.84
948,18893.01
949,18878.79
950,18839.92
951,18785.21
952,18746.02
953,18751.28
954,18788.95
955,18816.78
956,18795.17
957,18725.6
958,18638.13
959,18562.13
960,18513.33
961,18498.46
962,18521.89
963,18563.94
964,18590.26
965,18570.38
966,18513.26
967,18450.32
968,18410.2
969,18395.09
970,18393.26
971,18393.51
972,18389.9
973,18379.07
974,18358.36
975,18330.34
976,18299.85
977,18270.12
978,18233.45
979,18177.75
980,18095.75
981,18008.64
982,17948.05
983,17937.96
984,17961.81
985,17989.7
986,17997.23
987,17986
988,17965.29
989,17942.05
990,17913.52
991,17874.34
992,17823.21
993,17773.83
994,17743.37
995,17741.27
996,17751.63
997,17753.38
998,17732.19
999,17692.97
1000,17644.1
1001,17593.68
1002,17549.2
1003,17518
1004,17501.38
1005,17487.27
1006,17461.8
1007,17416.4
1008,17366.64
1009,17334.99
1010,17336.2
1011,17354.15
1012,17364.99
1013,17352.08
1014,17323.34
1015,17292
1016,17266.41
1017,17240.47
1018,17205.42
1019,17160.5
1020,17125.24
1021,17122.21
1022,17156.8
1023,17197.16
1024,17206.87
1025,17171.79
1026,17118.89
1027,17079.23
1028,17066.45
1029,17066.97
1030,17065.06
1031,17052.2
1032,17029.42
1033,16998.5
1034,16963.45
1035,16930.74
1036,16906.63
1037,16890.01
1038,16872.98
1039,16847.84
1040,16814.07
1041,16776.62
1042,16740.68
1043,16712.53
1044,16699.12
1045,16706.3
1046,16730.26
1047,16762.17
1048,16793.42
1049,16816.93
1050,16826.28
1051,16816.71
1052,16792.33
1053,16760.17
1054,16727.32
1055,16701.19
1056,16689.28
1057,16695.27
1058,16710.81
1059,16725.18
1060,16730.63
1061,16726.82
1062,16714.52
1063,16694.37
1064,16666.68
1065,16631.88
1066,16596.12
1067,16574.14
1068,16580.77
1069,16612.17
1070,16642.84
1071,16647.67
1072,16631.68
1073,16627
1074,16663.36
1075,16727.84
1076,16778
1077,16777.52
1078,16749.55
1079,16748.42
1080,16818.56
1081,16940.42
1082,17069.4
1083,17167.74
1084,17228.88
1085,17255.23
1086,17251.09
1087,17227.15
1088,17195.36
1089,17166.93
1090,17151.37
1091,17157.75
1092,17180.45
1093,17188.44
1094,17148.96
1095,17057.77
1096,16946.72
1097,16848.97
1098,16777.65
1099,16727.32
1100,16691.51
1101,16659.57
1102,16618.08
1103,16556.57
1104,16488.6
1105,16439.26
1106,16427.57
1107,16439.6
1108,16450.38
1109,16443.11
1110,16430.58
1111,16432.24
1112,16455.01
1113,16474.75
1114,16462.92
1115,16416.24
1116,16374.59
1117,16380.73
1118,16435.55
1119,16490.18
1120,16495.42
1121,16444.28
1122,16364.69
1123,16284.11
1124,16215.67
1125,16164.3
1126,16132.67
1127,16110.08
1128,16080.76
1129,16032.86
1130,15970.04
1131,15899.81
1132,15828.21
1133,15757.53
1134,15689.46
1135,15627.49
1136,15578.05
1137,15547.6
1138,15536.29
1139,15537.15
1140,15542.73
1141,15544.13
1142,15531.33
1143,15497.25
1144,15458.46
1145,15443.07
1146,15469.14
1147,15504.95
1148,15503.57
1149,15439.42
1150,15351.32
1151,15289.93
1152,15279.96
1153,15297.05
1154,15311.83
1155,15308.23
1156,15286.25
1157,15247.3
1158,15199.66
1159,15156.93
1160,15130.87
1161,15117.41
1162,15104.75
1163,15083.66
1164,15057.03
1165,15031.36
1166,15014.45
1167,15017.87
1168,15053.54
1169,15116.04
1170,15170.79
1171,15181.7
1172,15144.95
1173,15090.22
1174,15046.51
1175,15017.54
1176,14990.86
1177,14956.21
1178,14918.61
1179,14888.88
1180,14872.44
1181,14855.97
1182,14822.13
1183,14766.83
1184,14712.39
1185,14683.74
1186,14687.73
1187,14709.63
1188,14733.78
1189,14748.82
1190,14746.37
1191,14721.57
1192,14692.61
1193,14687.18
1194,14720.26
1195,14760.21
1196,14764.89
1197,14716.15
1198,14644.54
1199,14585.76
1200,14552.65
1201,14531.26
1202,14507.43
1203,14482.8
1204,14469.7
1205,14478.9
1206,14510.23
1207,14559.38
1208,14616.13
1209,14651.27
1210,14632.09
1211,14555.93
1212,14472.44
1213,14434.71
1214,14454
1215,14500.61
1216,14544.62
1217,14570.69
1218,14571.44
1219,14544.53
1220,14510.69
1221,14497.29
1222,14517.9
1223,14553.21
1224,14579.4
1225,14584.82
1226,14573.43
1227,14550.19
1228,14519.62
1229,14485.91
1230,14453.55
1231,14428.93
1232,14419.11
1233,14427.02
1234,14443.31
1235,14456.46
1236,14460.01
1237,14455.29
1238,14444.16
1239,14427.17
1240,14403.79
1241,14375.07
1242,14353.44
1243,14356.08
1244,14390.84
1245,14434.67
1246,14458.37
1247,14449.85
1248,14425.14
1249,14402.21
1250,14387.12
1251,14375.76
1252,14364.5
1253,14355.67
1254,14354.11
1255,14361.59
1256,14369.66
1257,14367.88
1258,14353.54
1259,14336.28
1260,14326.32
1261,14325.41
1262,14328.49
1263,14330.7
1264,14330.02
1265,14325.56
1266,14318.93
1267,14319.03
1268,14335.79
1269,14366.5
1270,14390.62
1271,14388.17
1272,14363.63
1273,14338.43
1274,14329.8
1275,14330.88
1276,14326.99
1277,14312.42
1278,14302.46
1279,14314.71
1280,14346.44
1281,14372.21
1282,14368.92
1283,14346.08
1284,14330.63
1285,14342.4
1286,14373.4
1287,14409
1288,14438.05
1289,14455.33
1290,14456.4
1291,14439.96
1292,14407.26
1293,14362.76
1294,14329.47
1295,14337.22
1296,14394.59
1297,14456.9
1298,14472.76
1299,14435.59
1300,14389.82
1301,14377.31
1302,14392.29
1303,14404.13
1304,14391.8
1305,14369.3
1306,14358.1
1307,14366.95
1308,14385.25
1309,14401.31
1310,14410.65
1311,14413.74
1312,14412.61
1313,14416.19
1314,14435.34
1315,14470.84
1316,14503.82
1317,14514.4
1318,14504.42
1319,14494.36
1320,14502.04
1321,14525.77
1322,14556.68
1323,14585.63
1324,14602.78
1325,14599.04
1326,14584.77
1327,14589.85
1328,14637.67
1329,14699.72
1330,14725.29
1331,14690.74
1332,14645.3
1333,14648.51
1334,14709
1335,14778.65
1336,14811.96
1337,14807.81
1338,14785.89
1339,14762.67
1340,14744.78
1341,14736.91
1342,14736.46
1343,14732.4
1344,14716.08
1345,14702.42
1346,14717.81
1347,14771.32
1348,14821.26
1349,14818.16
1350,14760.88
1351,14704.38
1352,14698.62
1353,14728.22
1354,14746.96
1355,14728.84
1356,14704.84
1357,14714.45
1358,14759.67
1359,14801.48
1360,14805.03
1361,14780.33
1362,14756.89
1363,14754.97
1364,14771.42
1365,14799.62
1366,14835.89
1367,14879.4
1368,14928.92
1369,14979.99
1370,15026.94
1371,15064.32
1372,15087.18
1373,15091.18
1374,15081.2
1375,15069.69
1376,15066.5
1377,15067.61
1378,15064.89
1379,15056.45
1380,15051.05
1381,15057.78
1382,15076.67
1383,15101.94
1384,15127.54
1385,15146.95
1386,15153.55
1387,15140.82
1388,15102.39
1389,15036.1
1390,14973.77
1391,14963.82
1392,15022.35
1393,15080.58
1394,15059.88
1395,14966.05
1396,14885.06
1397,14886.96
1398,14937.1
1399,14965.73
1400,14936.83
1401,14874.95
1402,14810.23
1403,14763.33
1404,14748.78
1405,14772
1406,14807.34
1407,14823.24
1408,14815.52
1409,14812.49
1410,14838.68
1411,14879.85
1412,14905.69
1413,14903.04
1414,14895.23
1415,14908.3
1416,14939.51
1417,14964.71
1418,14967
1419,14959.69
1420,14962.91
1421,14979
1422,14987.69
1423,14971.47
1424,14942.94
1425,14927.72
1426,14937.69
1427,14955.13
1428,14959.78
1429,14949.37
1430,14934.67
1431,14924.24
1432,14917.45
1433,14911.67
1434,14906.48
1435,14904.06
1436,14906.29
1437,14912.24
1438,14919.91
1439,14929.32
1440,14944.2
1441,14967.74
1442,14992.8
1443,15005.96
1444,15001.02
1445,14992.96
1446,14999.55
1447,15017.71
1448,15025.12
1449,15007.91
1450,14994.2
1451,15023.15
1452,15092.4
1453,15143.27
1454,15124.31
1455,15064.64
1456,15027.97
1457,15045.68
1458,15085.03
1459,15108.82
1460,15114.47
1461,15121.04
1462,15140.25
1463,15162.21
1464,15174.29
1465,15184.98
1466,15221.07
1467,15296.08
1468,15367.21
1469,15378.93
1470,15328.65
1471,15275.84
1472,15272.4
1473,15306.02
1474,15342.08
1475,15361.78
1476,15371.06
1477,15376.58
1478,15373.92
1479,15353.5
1480,15317.84
1481,15293.88
1482,15307.81
1483,15344.86
1484,15365.54
1485,15347.45
1486,15313.63
1487,15292.75
1488,15289.09
1489,15288.42
1490,15280.19
1491,15267.28
1492,15254.95
1493,15241.55
1494,15219.07
1495,15185.19
1496,15161.33
1497,15173.84
1498,15219.28
1499,15261.77
1500,15272.23
1501,15262.44
1502,15256.25
1503,15267.89
1504,15299.46
1505,15349.94
1506,15405.1
1507,15446.24
1508,15463.31
1509,15458.72
1510,15437.51
1511,15415.86
1512,15414.13
1513,15439.87
1514,15480.49
1515,15521.82
1516,15551.61
1517,15558.54
1518,15539.2
1519,15503.67
1520,15463.74
1521,15433.85
1522,15429.58
1523,15451.39
1524,15472.76
1525,15470.11
1526,15466.51
1527,15507.25
1528,15599.5
1529,15680.17
1530,15687.79
1531,15638.23
1532,15585.06
1533,15562.77
1534,15570.06
1535,15600.66
1536,15639.3
1537,15666.44
1538,15672.72
1539,15667.31
1540,15660.07
1541,15650.99
1542,15635.63
1543,15621.63
1544,15637.45
1545,15705.56
1546,15789.62
1547,15827.98
1548,15801.47
1549,15759.26
1550,15749.04
1551,15767.26
1552,15789.93
1553,15803.07
1554,15807.38
1555,15805.3
1556,15802.71
1557,15806.69
1558,15822.29
1559,15851.93
1560,15893.95
1561,15927.12
1562,15925.44
1563,15902.44
1564,15916.17
1565,16001.63
1566,16087.27
1567,16078.55
1568,15989.69
1569,15938.81
1570,16004.25
1571,16113.18
1572,16165.91
1573,16150.79
1574,16125.88
1575,16130.99
1576,16150.61
1577,16162.36
1578,16173.44
1579,16209.81
1580,16278.56
1581,16345.61
1582,16376.77
1583,16382.53
1584,16395.48
1585,16425.04
1586,16441.93
1587,16421.31
1588,16388.06
1589,16385.1
1590,16422.93
1591,16471.21
1592,16504.09
1593,16527.54
1594,16555.54
1595,16586.76
1596,16605.55
1597,16603.42
1598,16595.96
1599,16602.06
1600,16622.85
1601,16647.41
1602,16670.96
1603,16702.53
1604,16749.94
1605,16796.89
1606,16815.92
1607,16800.87
1608,16777.68
1609,16770.91
1610,16784.02
1611,16813.61
1612,16853.67
1613,16895.53
1614,16932.19
1615,16962.71
1616,16986.97
1617,16999.78
1618,16992.43
1619,16962.33
1620,16919.75
1621,16876.31
1622,16841.05
1623,16821.75
1624,16818.24
1625,16819.69
1626,16813.57
1627,16783.29
1628,16713.61
1629,16631.58
1630,16599.87
1631,16648.68
1632,16723.34
1633,16763.28
1634,16772.82
1635,16789.18
1636,16823.59
1637,16847.89
1638,16838.83
1639,16811.71
1640,16792.31
1641,16787.74
1642,16788.39
1643,16782.88
1644,16756.76
1645,16699.55
1646,16639.91
1647,16625.96
1648,16670.77
1649,16736.38
1650,16784.42
1651,16793.1
1652,16747.86
1653,16679.24
1654,16654.32
1655,16705.04
1656,16780.57
1657,16823.91
1658,16817.34
1659,16760.97
1660,16678.5
1661,16622.09
1662,16633.4
1663,16710.94
1664,16839.77
1665,16957.88
1666,16973.91
1667,16874.08
1668,16778.85
1669,16791.72
1670,16860.88
1671,16890.08
1672,16870.37
1673,16869.18
1674,16923.57
1675,16993.07
1676,17031.49
1677,17031.34
1678,17001.96
1679,16961.45
1680,16937.69
1681,16944.68
1682,16952.3
1683,16927.88
1684,16894.44
1685,16904.2
1686,16960.16
1687,16996.29
1688,16966.48
1689,16919.88
1690,16923.07
1691,16980.61
1692,17056.89
1693,17119.8
1694,17144.14
1695,17116.65
1696,17074.54
1697,17065.74
1698,17091.66
1699,17119.8
1700,17129.17
1701,17120.96
1702,17099.73
1703,17074.86
1704,17057.73
1705,17067.03
1706,17126.81
1707,17224.47
1708,17277.38
1709,17222.14
1710,17133.55
1711,17122.96
1712,17188.31
1713,17238.1
1714,17226.59
1715,17199.66
1716,17202.78
1717,17227.95
1718,17251.59
1719,17263.63
1720,17264.34
1721,17262.81
1722,17283.31
1723,17339.3
1724,17387.47
1725,17374.01
1726,17318.39
1727,17290.42
1728,17311.36
1729,17323.01
1730,17283.63
1731,17244.79
1732,17271.87
1733,17331.74
1734,17333.91
1735,17273.73
1736,17264.58
1737,17375.23
1738,17503.21
1739,17527.75
1740,17462.53
1741,17386.42
1742,17351.68
1743,17380.68
1744,17470.03
1745,17555.98
1746,17580.53
1747,17578.11
1748,17613.37
1749,17669.4
1750,17660.82
1751,17568.51
1752,17500.07
1753,17540.62
1754,17618.26
1755,17628.01
1756,17567.95
1757,17499.17
1758,17465.6
1759,17487.28
1760,17561.57
1761,17624.9
1762,17615.27
1763,17557.88
1764,17512.24
1765,17494.91
1766,17483.88
1767,17470.74
1768,17475.01
1769,17510.27
1770,17552.02
1771,17569.02
1772,17562.69
1773,17553.36
1774,17562.68
1775,17613.56
1776,17698.66
1777,17736.03
1778,17660.95
1779,17566.32
1780,17586.95
1781,17694.46
1782,17745.96
1783,17697.08
1784,17647.97
1785,17664.67
1786,17679.09
1787,17617.46
1788,17530.43
1789,17513.17
1790,17577.4
1791,17667.83
1792,17740.83
1793,17774.32
1794,17757.08
1795,17706.82
1796,17648.52
1797,17616.59
1798,17646.3
1799,17719.55
1800,17774.52
1801,17779.21
1802,17751.15
1803,17716.04
1804,17711.48
1805,17766.08
1806,17833.82
1807,17843.07
1808,17791.67
1809,17731.15
1810,17703.84
1811,17736.46
1812,17822.89
1813,17868.98
1814,17797.9
1815,17715.71
1816,17774.81
1817,17916.07
1818,17945.48
1819,17847.01
1820,17822.48
1821,17960.07
1822,18064.45
1823,17970.3
1824,17809.8
1825,17772.96
1826,17851.79
1827,17938.73
1828,17968.73
1829,17917.52
1830,17818.37
1831,17796.58
1832,17917.36
1833,18038.19
1834,18014.01
1835,17912.21
1836,17863.57
1837,17853.68
1838,17778.9
1839,17654.74
1840,17630.84
1841,17765.74
1842,17926.83
1843,17992.32
1844,17956.93
1845,17848.94
1846,17749.14
1847,17750.94
1848,17836.93
1849,17914.05
1850,17934.78
1851,17907.07
1852,17859.66
1853,17856.21
1854,17927.29
1855,17974.05
1856,17900.42
1857,17804.39
1858,17840.33
1859,17946.55
1860,17928.23
1861,17787.56
1862,17737.96
1863,17860.91
1864,17988.79
1865,17992.05
1866,17927.39
1867,17872.82
1868,17841.99
1869,17829.9
1870,17845.41
1871,17902.28
1872,17972.24
1873,17992.83
1874,17957.27
1875,17934.51
1876,17956.4
1877,17963.96
1878,17911.87
1879,17843.85
1880,17813.81
1881,17820.71
1882,17844.73
1883,17876.64
1884,17913.18
1885,17948.41
1886,17973.94
1887,17981.91
1888,17965.42
1889,17924.62
1890,17874.45
1891,17823.6
1892,17753.75
1893,17659.36
1894,17632.63
1895,17771.48
1896,17941.13
1897,17906.96
1898,17730.48
1899,17693.83
1900,17828.31
1901,17874.73
1902,17745.17
1903,17667.48
1904,17778.54
1905,17908.24
1906,17901.34
1907,17844.46
1908,17852.11
1909,17859.33
1910,17757.79
1911,17644.48
1912,17711.32
1913,17904.25
1914,17983.42
1915,17892.78
1916,17784.19
1917,17730.97
1918,17665.93
1919,17560
1920,17497.62
1921,17541.68
1922,17634.24
1923,17700.4
1924,17702.25
1925,17626.11
1926,17551.51
1927,17584.81
1928,17696.96
1929,17781.68
1930,17792.22
1931,17732.62
1932,17643.28
1933,17602.53
1934,17632.56
1935,17667.94
1936,17663.18
1937,17629.01
1938,17589.46
1939,17586.5
1940,17640.66
1941,17676.64
1942,17618.08
1943,17509.05
1944,17428.63
1945,17415.24
1946,17480.95
1947,17552.87
1948,17516.62
1949,17404.33
1950,17358.44
1951,17402.65
1952,17438.46
1953,17418.13
1954,17367.63
1955,17326.32
1956,17347.36
1957,17438.31
1958,17505.23
1959,17481.78
1960,17416.32
1961,17359.55
1962,17298.32
1963,17216.31
1964,17150.02
1965,17142.98
1966,17187.12
1967,17249.91
1968,17259.24
1969,17141.22
1970,16997.01
1971,17014.09
1972,17155.08
1973,17227.88
1974,17195.83
1975,17159.55
1976,17153.49
1977,17137.28
1978,17094.57
1979,17044.63
1980,17008.39
1981,17005.57
1982,17035.5
1983,17060.19
1984,17041.98
1985,16953.12
1986,16807.26
1987,16723.58
1988,16776.58
1989,16845.65
1990,16820.54
1991,16773.77
1992,16790.46
1993,16821.6
1994,16797.45
1995,16734.51
1996,16675.19
1997,16648.47
1998,16671.07
1999,16707.54
2000,16705.88
2001,16666.43
2002,16614.93
2003,16569.07
2004,16541.34
2005,16537.42
2006,16555.32
2007,16548.33
2008,16445.47
2009,16291.67
2010,16217.89
2011,16244.28
2012,16293.44
2013,16312.3
2014,16275.9
2015,16202.18
2016,16151.44
2017,16147.93
2018,16172.56
2019,16194.13
2020,16170.9
2021,16111.3
2022,16089
2023,16110.53
2024,16083.44
2025,15980.86
2026,15884.2
2027,15851.67
2028,15890.5
2029,15961.65
2030,15957.89
2031,15837.77
2032,15684.87
2033,15597.02
2034,15673.59
2035,15874.27
2036,15900.63
2037,15672.41
2038,15578.85
2039,15789.41
2040,15940.75
2041,15823.98
2042,15660.51
2043,15591.2
2044,15492.77
2045,15315.72
2046,15223.23
2047,15288.44
2048,15350.87
2049,15333.65
2050,15383.94
2051,15517.02
2052,15434.76
2053,15060.09
2054,14818.1
2055,14910.54
2056,15002.81
2057,14907.59
2058,14821.72
2059,14843.75
2060,14822.57
2061,14717.03
2062,14717.9
2063,14860.46
2064,14889.09
2065,14726.14
2066,14612.42
2067,14643.72
2068,14661.69
2069,14598.93
2070,14542.04
2071,14523.03
2072,14488.85
2073,14425.32
2074,14371.44
2075,14335.98
2076,14291.93
2077,14257.28
2078,14295.62
2079,14405.8
2080,14521.32
2081,14544.67
2082,14367.85
2083,14100.65
2084,14002.2
2085,14032.88
2086,13961.36
2087,13819.64
2088,13786.86
2089,13821.53
2090,13778.57
2091,13699.36
2092,13695.08
2093,13706.52
2094,13617.87
2095,13424.2
2096,13190.31
2097,13125.01
2098,13376.61
2099,13616.05
2100,13524.02
2101,13316.55
2102,13226.26
2103,13140.9
2104,12982.42
2105,12942.86
2106,13082.7
2107,13074.03
2108,12812.86
2109,12705.27
2110,12895.99
2111,13040.71
2112,12978.85
2113,12842.46
2114,12729.93
2115,12679.14
2116,12671.92
2117,12646.13
2118,12590.06
2119,12528.3
2120,12465.05
2121,12396.17
2122,12352.79
2123,12359.94
2124,12296.69
2125,12062.65
2126,11931.51
2127,12122.45
2128,12220.67
2129,11929.04
2130,11728.34
2131,11908.35
2132,12010.74
2133,11784.85
2134,11524.36
2135,11418
2136,11433.74
2137,11530.46
2138,11667.01
2139,11679.23
2140,11346.3
2141,10972.85
2142,11102.12
2143,11468.54
2144,11513.58
2145,11283.97
2146,11027.35
2147,10906.02
2148,10976.35
2149,11037.03
2150,10931.1
2151,10716.14
2152,10511.66
2153,10484.92
2154,10593.76
2155,10548.29
2156,10387.65
2157,10429.95
2158,10550.35
2159,10387.91
2160,10140.6
2161,10171.77
2162,10241.86
2163,10065.05
2164,9973.083
2165,10179.84
2166,10202.08
2167,9820.27
2168,9505.159
2169,9462.924
2170,9465.421
2171,9468.313
2172,9602.133
2173,9729.522
2174,9594.797
2175,9396.074
2176,9427.368
2177,9448.677
2178,9217.001
2179,8997.459
2180,8988.985
2181,9034.11
2182,8992.148
2183,8819.329
2184,8619.861
2185,8610.978
2186,8700.053
2187,8625.666
2188,8433.701
2189,8286.705
2190,8248.141
2191,8297.978
2192,8257.973
2193,8059.594
2194,7889.86
2195,7839.855
2196,7848.307
2197,7850.952
2198,7793.524
2199,7665.644
2200,7505.915
2201,7490.378
2202,7710.196
2203,7838.376
2204,7675.343
2205,7442.186
2206,7307.299
2207,7304.115
2208,7385.077
2209,7444.241
2210,7377.851
2211,7144.263
2212,6997.561
2213,7122.185
2214,7239.535
2215,7153.858
2216,6960.453
2217,6773.773
2218,6690.365
2219,6721.624
2220,6808.719
2221,6802.849
2222,6600.36
2223,6394.522
2224,6336.79
2225,6343.784
2226,6301.86
2227,6109.813
2228,5854.33
2229,5743.577
2230,5824.041
2231,6022.982
2232,6087.089
2233,5883.649
2234,5652.391
2235,5558.747
2236,5597.396
2237,5657.573
2238,5587.247
2239,5457.624
2240,5384.434
2241,5276.833
2242,5087.472
2243,4959.038
2244,4939.01
2245,4945.62
2246,5033.625
2247,5280.103
2248,5313.521
2249,4880.321
2250,4609.689
2251,4784.391
2252,4840.597
2253,4680.881
2254,4665.957
2255,4673.069
2256,4443.143
2257,4249.564
2258,4299.24
2259,4336.637
2260,4266.517
2261,4245.279
2262,4258.731
2263,4206.495
2264,4178.77
2265,4204.792
2266,3979.376
2267,3519.745
2268,3341.098
2269,3460.959
2270,3542.738
2271,3561.051
2272,3584.729
2273,3590.963
2274,3566.308
2275,3534.18
2276,3458.345
2277,3273.431
2278,3052.656
2279,2910.784
2280,2913.112
2281,2981.586
2282,2860.076
2283,2673.636
2284,2767.146
2285,2926.983
2286,2875.297
2287,2773.385
2288,2679.15
2289,2425.714
2290,2212.308
2291,2377.347
2292,2564.032
2293,2450.734
2294,2364.264
2295,2364.956
2296,2134.436
2297,1846.368
2298,1839.915
2299,1897.903
2300,1816.792
