400,26761.56
401,26767.77
402,26789.69
403,26820.75
404,26854.21
405,26882.53
406,26894.63
407,26878.38
408,26822.99
409,26736.21
410,26640.15
411,26557.07
412,26500.29
413,26465.86
414,26447.9
415,26441.89
416,26450.49
417,26478.72
418,26530.8
419,26597.22
420,26656.85
421,26688.35
422,26681.25
423,26647.84
424,26603.16
425,26561.62
426,26534.19
427,26530.55
428,26559.34
429,26610.15
430,26655.87
431,26668.99
432,26636.84
433,26578.15
434,26515.64
435,26468.38
436,26435.51
437,26409.18
438,26381.84
439,26350.57
440,26316.45
441,26280.67
442,26245.72
443,26216.69
444,26198.95
445,26195.39
446,26196.08
447,26186.9
448,26155.01
449,26105.84
450,26059.26
451,26035.25
452,26038.47
453,26045.75
454,26031.12
455,25974.8
456,25884.83
457,25777.08
458,25667.33
459,25571.94
460,25507.6
461,25490.59
462,25518.73
463,25561.59
464,25586.5
465,25570.54
466,25525.99
467,25473.09
468,25429.67
469,25391.5
470,25342.32
471,25266.32
472,25165.73
473,25064.73
474,24988.69
475,24953.67
476,24950.25
477,24964.64
478,24983.76
479,24998.53
480,25001.61
481,24986.12
482,24953.7
483,24913.79
484,24876.06
485,24846.43
486,24823.5
487,24804.98
488,24788.23
489,24768.83
490,24741.87
491,24702.95
492,24653.38
493,24598.17
494,24542.34
495,24490.17
496,24444.92
497,24409.78
498,24383.88
499,24354.46
500,24306.56
501,24229.21
502,24138.41
503,24061.53
504,24024.42
505,24026.28
506,24042.54
507,24048.04
508,24029.61
509,23996.15
510,23958.88
511,23925.2
512,23887.21
513,23833.21
514,23753.71
515,23659.51
516,23572.49
517,23514.06
518,23491.97
519,23498.87
520,23526.64
521,23559.72
522,23565.67
523,23509.91
524,23371.17
525,23192.82
526,23037.71
527,22962.89
528,22962.93
529,22992.99
530,23008.56
531,22990.64
532,22951.86
533,22906.8
534,22866.87
535,22835.87
536,22816.37
537,22808.03
538,22795.05
539,22756.61
540,22674.59
541,22561.83
542,22451.44
543,22376.08
544,22343.35
545,22329.49
546,22308.89
547,22269.24
548,22230.68
549,22218.15
550,22248.41
551,22297.52
552,22328.9
553,22309.79
554,22247.43
555,22173.71
556,22119.81
557,22089.7
558,22056.04
559,21989.96
560,21881.86
561,21763.73
562,21672.88
563,21636.42
564,21638.3
565,21651
566,21649.67
567,21632.15
568,21608.14
569,21587.02
570,21570.85
571,21554.72
572,21533.52
573,21506.22
574,21478.99
575,21458.62
576,21447.58
577,21434.07
578,21403.44
579,21344.14
580,21264.13
581,21178.96
582,21103.44
583,21042.71
584,20994.96
585,20958.21
586,20929.05
587,20902.32
588,20872.74
589,20835.94
590,20789.5
591,20731.29
592,20663.35
593,20605.31
594,20581.38
595,20609.85
596,20662.09
597,20687
598,20636.87
599,20521.88
600,20400.83
601,20332.96
602,20336.48
603,20370.63
604,20390.29
605,20366.52
606,20310.87
607,20241.07
608,20174.7
609,20128.91
610,20120.64
611,20162.02
612,20224.67
613,20259.92
614,20222.31
615,20120.47
616,20008.97
617,19942.77
618,19940.57
619,19970.04
620,19995.14
621,19989.48
622,19949.31
623,19874.2
624,19769.29
625,19662.79
626,19588.77
627,19575.21
628,19606.12
629,19645.88
630,19660.65
631,19640.1
632,19591.26
633,19521.75
634,19446.27
635,19387.95
636,19370.08
637,19394.83
638,19423.65
639,19413.57
640,19339.77
641,19235.2
642,19144.15
643,19103.03
644,19106.45
645,19134.94
646,19169.9
647,19199.77
648,19216.96
649,19214.17
650,19188.08
651,19138.88
652,19066.97
653,18979.43
654,18892.22
655,18821.84
656,18776.21
657,18745.19
658,18716.39
659,18681
660,18642.29
661,18606.05
662,18577.56
663,18559.1
664,18551.93
665,18556.37
666,18564.09
667,18562.06
668,18538.1
669,18493.3
670,18439.77
671,18389.7
672,18349.13
673,18316.41
674,18289.44
675,18264.77
676,18236.47
677,18198.36
678,18148.81
679,18099.29
680,18063.53
681,18050.57
682,18048.62
683,18040.04
684,18009.78
685,17960.18
686,17901.09
687,17842.11
688,17790.34
689,17751.23
690,17730.05
691,17728.43
692,17744.64
693,17776.68
694,17814.36
695,17836.46
696,17821.23
697,17761.44
698,17678.27
699,17596.12
700,17532.61
701,17485.98
702,17451.02
703,17421.94
704,17390.49
705,17347.79
706,17288.25
707,17227.47
708,17189.41
709,17195.03
710,17236.79
711,17290.89
712,17333.84
713,17347.81
714,17319.59
715,17237.12
716,17116.55
717,17005.43
718,16952.08
719,16967.83
720,17006.79
721,17018.55
722,16977.23
723,16909.61
724,16849.19
725,16818.4
726,16806.27
727,16795.58
728,16773.32
729,16744.49
730,16718.94
731,16703.99
732,16691.7
733,16668.39
734,16622.33
735,16558.67
736,16491.33
737,16433.46
738,16388.34
739,16352.21
740,16321.26
741,16292.7
742,16264.71
743,16235.56
744,16206.03
745,16179.89
746,16161.09
747,16150.08
748,16141.6
749,16129.93
750,16112.74
751,16095.11
752,16083.09
753,16077.81
754,16066.01
755,16031.95
756,15968.54
757,15902.62
758,15869.19
759,15892.83
760,15944.01
761,15975.66
762,15948.24
763,15874.26
764,15788.59
765,15723.29
766,15684.15
767,15662.35
768,15649.21
769,15639.38
770,15629.87
771,15617.87
772,15602.32
773,15583.83
774,15562.91
775,15537.2
776,15501.04
777,15448.87
778,15387.64
779,15341.93
780,15337.25
781,15374.78
782,15412.71
783,15405.16
784,15333.29
785,15237.72
786,15166.83
787,15151.13
788,15171.82
789,15201.73
790,15218.69
791,15217.62
792,15197.17
793,15158.32
794,15112.06
795,15072.14
796,15049.6
797,15041.19
798,15038.84
799,15035.11
800,15026.56
801,15011.49
802,14988
803,14952.82
804,14901.98
805,14833.12
806,14761.23
807,14711.83
808,14708.04
809,14739.58
810,14772.05
811,14772.19
812,14734.48
813,14677.14
814,14618.71
815,14568.69
816,14527.45
817,14494.86
818,14466.8
819,14434.44
820,14389.01
821,14332.87
822,14283.72
823,14260.06
824,14264.83
825,14276.19
826,14270.29
827,14237.38
828,14193.63
829,14157.93
830,14140.13
831,14130.91
832,14118.55
833,14096.44
834,14070.45
835,14048.36
836,14033.96
837,14019.87
838,13996.79
839,13959.79
840,13918.14
841,13883.98
842,13864.63
843,13849.8
844,13825.09
845,13781.28
846,13730.72
847,13691.48
848,13677.6
849,13684.41
850,13701.59
851,13718.66
852,13723.81
853,13704.85
854,13653.31
855,13583.02
856,13516.13
857,13471.85
858,13449.71
859,13441.13
860,13438.32
861,13439.66
862,13446.3
863,13458.33
864,13466.45
865,13456.7
866,13417.58
867,13360.37
868,13308.61
869,13283.49
870,13281.33
871,13283.89
872,13274.14
873,13249.74
874,13217.62
875,13184.65
876,13155.27
877,13132.29
878,13118.13
879,13110.04
880,13101.63
881,13086.7
882,13062.84
883,13030.5
884,12990.73
885,12953.14
886,12934.14
887,12948.81
888,12987.23
889,13018.66
890,13013.67
891,12976.17
892,12939.03
893,12934.36
894,12962.33
895,12994.37
896,13002.02
897,12978.64
898,12937.91
899,12893.92
900,12853.14
901,12814.8
902,12778.01
903,12746.35
904,12727.79
905,12729.83
906,12746.28
907,12757.19
908,12743.03
909,12705.61
910,12668.46
911,12654.78
912,12658.84
913,12645.25
914,12579.09
915,12466.58
916,12356.26
917,12296.86
918,12297.66
919,12327.34
920,12353.57
921,12362.21
922,12357.79
923,12345.71
924,12331.77
925,12322.18
926,12322.81
927,12331.87
928,12339.83
929,12337.08
930,12318.25
931,12282.24
932,12228.41
933,12162.45
934,12096.19
935,12041.34
936,12002.83
937,11979.2
938,11968.53
939,11965.14
940,11959.88
941,11943.93
942,11916.54
943,11884.08
944,11853.02
945,11828.17
946,11812.9
947,11810.18
948,11817.62
949,11828.48
950,11836.02
951,11835.37
952,11823.14
953,11796.84
954,11766.22
955,11750.04
956,11764.89
957,11797.69
958,11814.66
959,11785.1
960,11717.94
961,11648.08
962,11607.89
963,11598.86
964,11603.59
965,11605.75
966,11601.58
967,11594.58
968,11588.11
969,11584.13
970,11583.83
971,11587.51
972,11588.09
973,11574.92
974,11540.06
975,11495.44
976,11461.8
977,11455.04
978,11459.04
979,11444.74
980,11390.36
981,11317.49
982,11263.61
983,11258.09
984,11287.43
985,11324
986,11344.85
987,11349.1
988,11342.39
989,11329.93
990,11314.98
991,11300.32
992,11287.88
993,11276.49
994,11264.25
995,11249.38
996,11230.37
997,11205.81
998,11175.9
999,11145.51
1000,11120.35
1001,11102.96
1002,11087.9
1003,11068.54
1004,11042.04
1005,11014.04
1006,10991.3
1007,10978.82
1008,10973.56
1009,10970.16
1010,10965.45
1011,10964.95
1012,10976.34
1013,11002.07
1014,11026.5
1015,11030.13
1016,11002.78
1017,10961.82
1018,10929.7
1019,10919.43
1020,10920.14
1021,10917.29
1022,10902.55
1023,10881.05
1024,10859.65
1025,10843.6
1026,10835.24
1027,10836.52
1028,10845.59
1029,10854.66
1030,10855.52
1031,10843.1
1032,10816.5
1033,10775.42
1034,10728.05
1035,10692.03
1036,10684.49
1037,10702.54
1038,10724.71
1039,10730.15
1040,10717.05
1041,10698.31
1042,10686.18
1043,10681.55
1044,10678.03
1045,10669.92
1046,10658.04
1047,10646.58
1048,10639.19
1049,10635.63
1050,10634
1051,10632.78
1052,10632.23
1053,10633.21
1054,10635.45
1055,10633.87
1056,10622.21
1057,10599.01
1058,10578.11
1059,10576.33
1060,10599.4
1061,10625.53
1062,10628.96
1063,10600.17
1064,10560.74
1065,10535.58
1066,10537.92
1067,10563.72
1068,10607.27
1069,10656.05
1070,10689.63
1071,10688.43
1072,10657.34
1073,10623.25
1074,10612.1
1075,10628.05
1076,10660.19
1077,10697.83
1078,10734.81
1079,10767.31
1080,10792.57
1081,10814.16
1082,10838.19
1083,10869.17
1084,10904.54
1085,10939.72
1086,10969.3
1087,10985.05
1088,10978.22
1089,10950.41
1090,10927.78
1091,10939.73
1092,10989.21
1093,11033.42
1094,11026.07
1095,10957.73
1096,10865.64
1097,10788.77
1098,10740.79
1099,10711.94
1100,10691.83
1101,10673.18
1102,10650.84
1103,10620.72
1104,10587.08
1105,10558.13
1106,10540.73
1107,10534.17
1108,10535.2
1109,10540.39
1110,10545.56
1111,10546.37
1112,10541.15
1113,10534.83
1114,10533.27
1115,10539.11
1116,10549.42
1117,10560.76
1118,10569.89
1119,10573.88
1120,10570.04
1121,10559.85
1122,10548.22
1123,10539.12
1124,10526.63
1125,10499.15
1126,10447.57
1127,10378.27
1128,10303.54
1129,10235.09
1130,10182.3
1131,10153.94
1132,10150.09
1133,10148.6
1134,10124.12
1135,10071.57
1136,10019.87
1137,10000.16
1138,10014.28
1139,10031.31
1140,10021.03
1141,9987.358
1142,9959.677
1143,9963.591
1144,9989.363
1145,10010.08
1146,10004.25
1147,9977.559
1148,9944.007
1149,9915.59
1150,9898.271
1151,9896.796
1152,9907.948
1153,9913.466
1154,9894.031
1155,9850.401
1156,9807.567
1157,9789.862
1158,9789.973
1159,9776.112
1160,9721.694
1161,9647.41
1162,9596.922
1163,9601.465
1164,9633.105
1165,9646.562
1166,9616.521
1167,9573.07
1168,9555.499
1169,9578.302
1170,9614.329
1171,9633.343
1172,9626.975
1173,9609.568
1174,9595.077
1175,9581.03
1176,9554.456
1177,9506.54
1178,9455.143
1179,9428.286
1180,9442.42
1181,9473.713
1182,9489.699
1183,9474.24
1184,9443.892
1185,9418.743
1186,9407.292
1187,9404.217
1188,9403.686
1189,9403.795
1190,9405.441
1191,9409.011
1192,9411.055
1193,9406.54
1194,9393.04
1195,9377.651
1196,9369.605
1197,9370.955
1198,9369.205
1199,9350.591
1200,9316.828
1201,9287.715
1202,9282.429
1203,9299.616
1204,9324.035
1205,9341.588
1206,9346.797
1207,9337.445
1208,9315.238
1209,9294.451
1210,9291.721
1211,9309.152
1212,9323.51
1213,9310.316
1214,9274.379
1215,9249.237
1216,9265.17
1217,9310.461
1218,9350.425
1219,9357.847
1220,9341.32
1221,9319.78
1222,9305.272
1223,9293.398
1224,9277.625
1225,9261.614
1226,9262.134
1227,9294.48
1228,9343.228
1229,9371.33
1230,9349.087
1231,9293.652
1232,9239.544
1233,9211.256
1234,9203.479
1235,9205.482
1236,9210.379
1237,9217.157
1238,9225.193
1239,9232.113
1240,9234.103
1241,9228.155
1242,9217.087
1243,9206.189
1244,9200.403
1245,9203.487
1246,9218.896
1247,9245.252
1248,9273.253
1249,9293.154
1250,9300.418
1251,9294.958
1252,9278.022
1253,9259.3
1254,9252.133
1255,9264.613
1256,9287.493
1257,9308.025
1258,9317.077
1259,9311.298
1260,9288.559
1261,9258.16
1262,9238.653
1263,9244.756
1264,9264.56
1265,9275.56
1266,9263.474
1267,9238.166
1268,9213.794
1269,9199.62
1270,9198.026
1271,9210.358
1272,9231.184
1273,9250.356
1274,9258.607
1275,9251.827
1276,9227.608
1277,9190.882
1278,9163.722
1279,9169.833
1280,9208.545
1281,9252.001
1282,9273.641
1283,9272.146
1284,9259.708
1285,9249.163
1286,9255.218
1287,9292.764
1288,9354.58
1289,9395.75
1290,9371.179
1291,9293.034
1292,9219.623
1293,9200.774
1294,9227.752
1295,9270.31
1296,9303.976
1297,9318.928
1298,9307.997
1299,9276.689
1300,9244.896
1301,9231.685
1302,9241.563
1303,9271.455
1304,9313.91
1305,9346.341
1306,9343.249
1307,9306.45
1308,9279.295
1309,9304.491
1310,9371.323
1311,9432.223
1312,9449.335
1313,9434.394
1314,9413.662
1315,9404.482
1316,9406.856
1317,9418.747
1318,9437.021
1319,9457.604
1320,9476.693
1321,9492.258
1322,9502.92
1323,9508.358
1324,9510.715
1325,9512.423
1326,9514.617
1327,9517.107
1328,9519.4
1329,9519.229
1330,9513.577
1331,9503.256
1332,9499.325
1333,9514.1
1334,9546.773
1335,9581.92
1336,9604.828
1337,9612.552
1338,9607.678
1339,9593.394
1340,9574.539
1341,9556.132
1342,9539.286
1343,9520.552
1344,9497.343
1345,9476.218
1346,9468.18
1347,9478.581
1348,9496.176
1349,9507.033
1350,9508.369
1351,9510.352
1352,9522.115
1353,9538.727
1354,9548.61
1355,9544.085
1356,9528.489
1357,9507.196
1358,9489.175
1359,9487.321
1360,9511.624
1361,9549.797
1362,9579.879
1363,9588.605
1364,9584.592
1365,9579.715
1366,9582.974
1367,9600.574
1368,9636.733
1369,9684.281
1370,9731.757
1371,9768.397
1372,9784.972
1373,9773.597
1374,9745.84
1375,9729.23
1376,9743.932
1377,9771.832
1378,9783.438
1379,9769.258
1380,9753.939
1381,9762.728
1382,9787.912
1383,9800.272
1384,9781.319
1385,9753.398
1386,9747.494
1387,9764.758
1388,9767.423
1389,9722.063
1390,9652.664
1391,9611.182
1392,9624.885
1393,9655.798
1394,9657.278
1395,9623.968
1396,9589.706
1397,9583.828
1398,9602.388
1399,9630.184
1400,9652.316
1401,9654.484
1402,9624.747
1403,9578.715
1404,9550
1405,9560.395
1406,9589.517
1407,9608.487
1408,9610.401
1409,9614.331
1410,9636.168
1411,9659.688
1412,9655.396
1413,9615.588
1414,9578.889
1415,9586.377
1416,9628.725
1417,9659.121
1418,9646.217
1419,9622.365
1420,9634.398
1421,9691.086
1422,9752.979
1423,9782.563
1424,9778.888
1425,9756.861
1426,9730.281
1427,9710.37
1428,9706.876
1429,9713.286
1430,9711.271
1431,9689.536
1432,9663.5
1433,9654.206
1434,9666.686
1435,9687.327
1436,9702.709
1437,9707.403
1438,9699.077
1439,9680.856
1440,9665.873
1441,9667.325
1442,9687.25
1443,9720.881
1444,9758.76
1445,9778.18
1446,9755.798
1447,9704.347
1448,9669.781
1449,9686.662
1450,9731.505
1451,9764.877
1452,9774.966
1453,9787.421
1454,9824.987
1455,9870.473
1456,9889.572
1457,9870.353
1458,9845.077
1459,9847.992
1460,9876.771
1461,9906.294
1462,9919.216
1463,9921.395
1464,9922.501
1465,9927.004
1466,9934.86
1467,9946.418
1468,9964.187
1469,9990.831
1470,10016.7
1471,10017.67
1472,9977.165
1473,9926.128
1474,9911.782
1475,9947.057
1476,9991.541
1477,10005.83
1478,9995.356
1479,9986.513
1480,9991.312
1481,9992.357
1482,9971.318
1483,9938.309
1484,9920.667
1485,9932.125
1486,9950.442
1487,9949.104
1488,9924.036
1489,9888.128
1490,9854.319
1491,9834.197
1492,9838.167
1493,9857.695
1494,9866.871
1495,9851.159
1496,9844.424
1497,9890.727
1498,9978.726
1499,10036.8
1500,10009.53
1501,9934.914
1502,9878.194
1503,9870.623
1504,9900.584
1505,9951.266
1506,9992.343
1507,9989.422
1508,9944.062
1509,9909.066
1510,9930.271
1511,9982.781
1512,10014.3
1513,10006.77
1514,9996.166
1515,10016.55
1516,10053.9
1517,10073.67
1518,10064.4
1519,10054.12
1520,10069.08
1521,10092.1
1522,10086.21
1523,10044.93
1524,10016.56
1525,10046.63
1526,10110.96
1527,10152.02
1528,10140.93
1529,10102.04
1530,10064.66
1531,10051.18
1532,10080.44
1533,10146.53
1534,10198.07
1535,10188.52
1536,10151.7
1537,10159.89
1538,10234.02
1539,10301.92
1540,10293.13
1541,10228.37
1542,10170.67
1543,10156.64
1544,10176.87
1545,10216.58
1546,10255.23
1547,10270.04
1548,10259.93
1549,10258.67
1550,10297.23
1551,10366.85
1552,10442.7
1553,10496.42
1554,10494.62
1555,10418.2
1556,10333.33
1557,10334.78
1558,10428.88
1559,10507.35
1560,10482.78
1561,10411.42
1562,10391.53
1563,10439.28
1564,10478.42
1565,10451.85
1566,10404.03
1567,10403.22
1568,10457.79
1569,10518.77
1570,10547.93
1571,10551.76
1572,10545.78
1573,10535.94
1574,10520.7
1575,10503.18
1576,10499.75
1577,10526.8
1578,10574.23
1579,10615.08
1580,10635.24
1581,10648.81
1582,10670.05
1583,10683.52
1584,10659.35
1585,10603.14
1586,10579.33
1587,10642.37
1588,10750.15
1589,10825.17
1590,10837.55
1591,10817.41
1592,10795.6
1593,10788.76
1594,10808.79
1595,10848.68
1596,10883.68
1597,10898.96
1598,10912.76
1599,10946.55
1600,10981.55
1601,10971.69
1602,10906.59
1603,10854.27
1604,10880.01
1605,10943.91
1606,10957.03
1607,10898.99
1608,10852.76
1609,10888.33
1610,10964.15
1611,11005.17
1612,10991.84
1613,10961.67
1614,10946.77
1615,10952.8
1616,10978.68
1617,11006.45
1618,11006.72
1619,10969.98
1620,10928.87
1621,10916.76
1622,10932.8
1623,10960.86
1624,10976.86
1625,10946.19
1626,10854.03
1627,10773.67
1628,10795.63
1629,10896.44
1630,10956.73
1631,10909.25
1632,10826.32
1633,10793.86
1634,10826.04
1635,10899.96
1636,10982.75
1637,11027.21
1638,11001.88
1639,10956.01
1640,10959.21
1641,11012.17
1642,11054.29
1643,11042.36
1644,10984.29
1645,10897.55
1646,10811.17
1647,10759.96
1648,10764.46
1649,10824.41
1650,10925.97
1651,11002.78
1652,10980.45
1653,10892.55
1654,10860.31
1655,10934.55
1656,10999.83
1657,10942.71
1658,10832.91
1659,10816.77
1660,10917.57
1661,11009.09
1662,10997.1
1663,10930.97
1664,10887.07
1665,10892.39
1666,10942.13
1667,11010.94
1668,11039.2
1669,10985.83
1670,10921.49
1671,10946.05
1672,11042.78
1673,11092.99
1674,11038.83
1675,10973.62
1676,10993.49
1677,11060.06
1678,11079.95
1679,11037.71
1680,11006.5
1681,11035.11
1682,11082.63
1683,11097.41
1684,11088.05
1685,11095.42
1686,11137.78
1687,11201.5
1688,11265.25
1689,11287.99
1690,11230.37
1691,11129.12
1692,11069.56
1693,11086.03
1694,11128.14
1695,11146.11
1696,11127.89
1697,11074.86
1698,11030.23
1699,11067.17
1700,11193
1701,11294.77
1702,11278.06
1703,11202.32
1704,11168.46
1705,11192.53
1706,11224.5
1707,11232.48
1708,11222.68
1709,11206.57
1710,11200.5
1711,11220.81
1712,11258.36
1713,11283.99
1714,11283.25
1715,11270.79
1716,11265.19
1717,11288.01
1718,11357.36
1719,11426.22
1720,11398.8
1721,11267.53
1722,11185.07
1723,11269.62
1724,11405.82
1725,11425.37
1726,11336.65
1727,11269.9
1728,11287.51
1729,11338.89
1730,11373.11
1731,11378.46
1732,11355.01
1733,11326.07
1734,11328.18
1735,11364.06
1736,11390.04
1737,11377.71
1738,11358.8
1739,11371.52
1740,11407.82
1741,11437.58
1742,11450.11
1743,11456.27
1744,11460.59
1745,11448.96
1746,11411.06
1747,11377.16
1748,11389.46
1749,11430.43
1750,11432.37
1751,11376.45
1752,11337.21
1753,11374.72
1754,11442.57
1755,11471.37
1756,11456.01
1757,11430.68
1758,11416.73
1759,11417.91
1760,11430.76
1761,11434.58
1762,11411.51
1763,11385.25
1764,11394.23
1765,11426.22
1766,11424
1767,11378.27
1768,11372.72
1769,11470.2
1770,11602.25
1771,11672.96
1772,11658.34
1773,11576.88
1774,11482.56
1775,11470.6
1776,11570.22
1777,11641.79
1778,11561.3
1779,11432.76
1780,11424.89
1781,11526.9
1782,11601.28
1783,11583.14
1784,11515.48
1785,11446.14
1786,11412.25
1787,11437.47
1788,11470
1789,11434.97
1790,11372.49
1791,11413.68
1792,11589.99
1793,11771.61
1794,11854.32
1795,11862.42
1796,11839.96
1797,11789.39
1798,11698.9
1799,11610.39
1800,11609
1801,11700.06
1802,11760.43
1803,11707.43
1804,11621.82
1805,11599.77
1806,11626.82
1807,11647.17
1808,11652.87
1809,11672.67
1810,11712.39
1811,11743.19
1812,11742.28
1813,11711.53
1814,11661.47
1815,11627.28
1816,11647.62
1817,11698.55
1818,11716.39
1819,11696.7
1820,11707.41
1821,11775.7
1822,11827.95
1823,11799.54
1824,11724.53
1825,11659.41
1826,11623.18
1827,11615.52
1828,11633.42
1829,11671.4
1830,11716.55
1831,11743.88
1832,11735.8
1833,11700.6
1834,11654.75
1835,11633.29
1836,11671.48
1837,11729.6
1838,11722.88
1839,11658.72
1840,11647.82
1841,11732.49
1842,11811.2
1843,11806.11
1844,11781.21
1845,11812.14
1846,11847.07
1847,11794.18
1848,11704.44
1849,11723.5
1850,11850.07
1851,11909
1852,11822.32
1853,11725
1854,11735.91
1855,11829.5
1856,11946.59
1857,12014.15
1858,11963.02
1859,11833.95
1860,11736.77
1861,11714.4
1862,11737.18
1863,11787.3
1864,11873.9
1865,11979.1
1866,11998.15
1867,11854.87
1868,11698.59
1869,11720.24
1870,11844.74
1871,11868.44
1872,11785.3
1873,11754.58
1874,11828.02
1875,11906.65
1876,11918.98
1877,11875.08
1878,11808.95
1879,11801.47
1880,11917.54
1881,12067.75
1882,12119.11
1883,12063.51
1884,11963.34
1885,11850.7
1886,11730.55
1887,11635.3
1888,11635.76
1889,11744.28
1890,11843.9
1891,11845.06
1892,11804.72
1893,11789.48
1894,11754.83
1895,11635.16
1896,11500.96
1897,11484.8
1898,11600.79
1899,11771.24
1900,11916.5
1901,11958.46
1902,11894.79
1903,11850.8
1904,11890.04
1905,11888.86
1906,11754.56
1907,11626.15
1908,11652.87
1909,11713.86
1910,11622.89
1911,11503.12
1912,11621.95
1913,11896.8
1914,11981.62
1915,11819.76
1916,11680.86
1917,11693.12
1918,11735.49
1919,11719.86
1920,11681.72
1921,11658.97
1922,11642.44
1923,11621.86
1924,11627.11
1925,11692.42
1926,11798.38
1927,11900.93
1928,11937.03
1929,11840.47
1930,11679.96
1931,11628.62
1932,11688.31
1933,11669.15
1934,11519.02
1935,11408.86
1936,11436.71
1937,11512.25
1938,11558.75
1939,11603.38
1940,11671.22
1941,11708.52
1942,11664.23
1943,11605.19
1944,11622.72
1945,11694.79
1946,11751
1947,11751.89
1948,11681.09
1949,11590.55
1950,11580.83
1951,11639.66
1952,11641.69
1953,11569.04
1954,11549.5
1955,11602.7
1956,11550.83
1957,11357.67
1958,11333.9
1959,11632.38
1960,11837.62
1961,11619.55
1962,11317.03
1963,11309.86
1964,11456.47
1965,11509.39
1966,11505.78
1967,11564.12
1968,11605.08
1969,11482.55
1970,11323.62
1971,11389.72
1972,11583.23
1973,11564.98
1974,11345.45
1975,11237.92
1976,11306.41
1977,11341.69
1978,11263.15
1979,11172.13
1980,11151.35
1981,11235.78
1982,11405.14
1983,11544.78
1984,11572.07
1985,11498.05
1986,11370.72
1987,11302.31
1988,11345.88
1989,11335.12
1990,11148.72
1991,10995.65
1992,11077.76
1993,11221.1
1994,11210.61
1995,11161.38
1996,11245.24
1997,11322.08
1998,11182.54
1999,10969.62
2000,10943.16
2001,11049.49
2002,11095.29
2003,11056.53
2004,11002.96
2005,10974.94
2006,10988.2
2007,10987.71
2008,10878.55
2009,10725.36
2010,10710.23
2011,10843.5
2012,10984.55
2013,11026.78
2014,10907.57
2015,10728.45
2016,10751.33
2017,10974.62
2018,11095.68
2019,11005.25
2020,10849.34
2021,10741.22
2022,10729.25
2023,10792.66
2024,10821.33
2025,10775.19
2026,10727.7
2027,10703.35
2028,10636.32
2029,10549
2030,10620.37
2031,10852.59
2032,10918.81
2033,10677.33
2034,10378.22
2035,10228.59
2036,10278.15
2037,10480.71
2038,10640.06
2039,10643.86
2040,10577.34
2041,10513.08
2042,10452.74
2043,10392.68
2044,10335.42
2045,10289.14
2046,10271.71
2047,10278.35
2048,10256.49
2049,10197.16
2050,10190.28
2051,10258.08
2052,10265.44
2053,10154.61
2054,10055.02
2055,10048.09
2056,10082.23
2057,10108.83
2058,10112.83
2059,10095.68
2060,10081.4
2061,10056.29
2062,9939.346
2063,9773.41
2064,9812.095
2065,10069.85
2066,10160.76
2067,9958.063
2068,9768.238
2069,9773.772
2070,9932.737
2071,10102.76
2072,10039.93
2073,9761.524
2074,9602.742
2075,9668.453
2076,9784.449
2077,9825.146
2078,9736.137
2079,9572.778
2080,9484.284
2081,9483.907
2082,9468.899
2083,9418.688
2084,9377.969
2085,9359.348
2086,9354.115
2087,9383.839
2088,9477.781
2089,9550.246
2090,9474.101
2091,9320.174
2092,9234.849
2093,9196.313
2094,9129.35
2095,9082.476
2096,9118.905
2097,9133.418
2098,9017.03
2099,8888.056
2100,8859.97
2101,8791.17
2102,8601.149
2103,8591.058
2104,8915.036
2105,9138.41
2106,8975.709
2107,8688.276
2108,8529.226
2109,8595.93
2110,8818.703
2111,8899.075
2112,8727.668
2113,8468.115
2114,8317.946
2115,8475.857
2116,8843.346
2117,9074.256
2118,9082.858
2119,8977.045
2120,8815.876
2121,8624.815
2122,8415.501
2123,8213.482
2124,8171.109
2125,8399.832
2126,8573.892
2127,8393.816
2128,8160.607
2129,8146.971
2130,8130.605
2131,7964.848
2132,7874.916
2133,7933.682
2134,7861.484
2135,7621.646
2136,7550.271
2137,7713.676
2138,7869.167
2139,7927.724
2140,7937.034
2141,7902.282
2142,7812.642
2143,7769.524
2144,7865.174
2145,7816.896
2146,7396.039
2147,7185.997
2148,7587.71
2149,7767.104
2150,7276.061
2151,7071.8
2152,7477.607
2153,7462.443
2154,6867.755
2155,6722.52
2156,7086.273
2157,7133.73
2158,6892.551
2159,6905.738
2160,7065.639
2161,7034.24
2162,6977.02
2163,7113.829
2164,7207.886
2165,7049.404
2166,6787.713
2167,6577.629
2168,6474.733
2169,6495.039
2170,6613.088
2171,6731.243
2172,6702.28
2173,6553.933
2174,6415.162
2175,6308.362
2176,6218.647
2177,6186.961
2178,6217.396
2179,6142.971
2180,5901.985
2181,5727.669
2182,5761.19
2183,5950.345
2184,6115.576
2185,5997.454
2186,5712.675
2187,5584.407
2188,5586.138
2189,5583.621
2190,5669.651
2191,5877.759
2192,5883.341
2193,5584.641
2194,5407.193
2195,5447.819
2196,5351.034
2197,5117.25
2198,5023.696
2199,5047.767
2200,5039.31
2201,5029.874
2202,5087.788
2203,5205.043
2204,5331
2205,5361.813
2206,5231.755
2207,4943.081
2208,4684.481
2209,4736.743
2210,4908.431
2211,4865.184
2212,4757.669
2213,4785.22
2214,4855.705
2215,4869.395
2216,4807.48
2217,4719.915
2218,4706.281
2219,4672.782
2220,4456.48
2221,4296.207
2222,4427.75
2223,4481.811
2224,4238.002
2225,4080.4
2226,4130.522
2227,4099.396
2228,3996.94
2229,4041.567
2230,4152.408
2231,4163.357
2232,4118.88
2233,4075.156
2234,3995.53
2235,3874.991
2236,3758.252
2237,3569.782
2238,3214.091
2239,3134.865
2240,3682.053
2241,3943.993
2242,3434.219
2243,3156.182
2244,3450.837
2245,3694.479
2246,3712.198
2247,3647.676
2248,3514.578
2249,3310.927
2250,3142.364
2251,3054.051
2252,2958.896
2253,2860.154
2254,2851.688
2255,2974.661
2256,3182.807
2257,3179.648
2258,2874.602
2259,2770.294
2260,2960.651
2261,2984.577
2262,2727.162
2263,2360.342
2264,2270.548
2265,2620.834
2266,2786.233
2267,2554.808
2268,2447.894
2269,2497.753
2270,2392.811
2271,2239.763
2272,2226.445
2273,2282.612
2274,2305.982
2275,2226.884
2276,2087.828
2277,2009.138
2278,2046.878
2279,2152.606
2280,2045.819
2281,1797.157
2282,2019.864
2283,2440.636
2284,2257.122
2285,1906.993
2286,1949.465
2287,1909.573
2288,1631.096
2289,1618.725
2290,1859.38
2291,1989.109
2292,1895.105
2293,1650.333
2294,1557.149
2295,1571.106
2296,1271.901
2297,968.7895
2298,1184.9
2299,1510.991
2300,1516.933
