400,38864.61
401,38814.18
402,38700.25
403,38578.8
404,38511.47
405,38540.78
406,38621.55
407,38683.36
408,38660.5
409,38552.29
410,38408.07
411,38278.15
412,38194.61
413,38154.55
414,38151.12
415,38176.62
416,38219.01
417,38264.86
418,38301.21
419,38322.72
420,38330.5
421,38325.84
422,38311.73
423,38294.62
424,38281.34
425,38277.15
426,38278.24
427,38277.65
428,38268.83
429,38252.13
430,38234.03
431,38221.11
432,38212.36
433,38190.47
434,38136.12
435,38036.02
436,37910.65
437,37792.2
438,37711.31
439,37673.41
440,37662.23
441,37660.95
442,37657.96
443,37652.16
444,37643.71
445,37631.33
446,37605.98
447,37556.13
448,37471.93
449,37368.61
450,37281.14
451,37244.54
452,37265.99
453,37302.16
454,37304.57
455,37236.63
456,37114.71
457,36970.06
458,36832.57
459,36716.96
460,36627.64
461,36568.65
462,36534.69
463,36506.23
464,36462.62
465,36390.43
466,36302.43
467,36217.28
468,36151.07
469,36096.4
470,36032.98
471,35941.25
472,35826.58
473,35724.75
474,35673.14
475,35690.75
476,35746.04
477,35798.93
478,35813.52
479,35780.79
480,35702.86
481,35582.78
482,35441.61
483,35316.89
484,35246.35
485,35243.12
486,35271.54
487,35290.39
488,35266.7
489,35204.81
490,35119.87
491,35026.5
492,34934.65
493,34851.25
494,34783.11
495,34735.35
496,34710.86
497,34712.35
498,34734.32
499,34746.9
500,34715.85
501,34614.48
502,34467.57
503,34321.55
504,34221.08
505,34179.88
506,34184.05
507,34218.75
508,34263.19
509,34285.56
510,34253.02
511,34145.8
512,33996.66
513,33851.4
514,33750.28
515,33683.34
516,33613.21
517,33503.72
518,33356.13
519,33213
520,33118.78
521,33094.64
522,33109.55
523,33125.45
524,33110.93
525,33066.32
526,33001.57
527,32926.27
528,32846.44
529,32765.83
530,32688.11
531,32617.24
532,32557.54
533,32513.29
534,32485.01
535,32463.86
536,32439.62
537,32401.06
538,32331.44
539,32212.27
540,32029.45
541,31820.39
542,31656.24
543,31606.56
544,31674.94
545,31782.1
546,31843.96
547,31811.17
548,31718.92
549,31614.93
550,31538.34
551,31485.87
552,31440.97
553,31389.15
554,31337.73
555,31307.47
556,31318.07
557,31355.82
558,31368.45
559,31302.03
560,31140.37
561,30949.01
562,30803.89
563,30760.1
564,30784.54
565,30820.56
566,30816.31
567,30759.78
568,30659.71
569,30525.71
570,30382.49
571,30269.21
572,30225.11
573,30260.93
574,30338.15
575,30413.53
576,30450.44
577,30433.62
578,30352.19
579,30202.19
580,30023.6
581,29873.61
582,29804.69
583,29809.04
584,29835.69
585,29833.72
586,29779.54
587,29684.12
588,29560.56
589,29424.81
590,29299.25
591,29207.02
592,29163.52
593,29151.73
594,29146.2
595,29124.41
596,29086.72
597,29044.52
598,29008.44
599,28975.89
600,28933.15
601,28866.49
602,28776.43
603,28683.96
604,28611.55
605,28570.25
606,28542.49
607,28506.38
608,28447.56
609,28385.73
610,28350.2
611,28365.09
612,28411.28
613,28448.01
614,28436.58
615,28373.23
616,28283.92
617,28195.13
618,28119.96
619,28052.75
620,27986.44
621,27917.12
622,27848.36
623,27784.77
624,27730.87
625,27690.72
626,27668.3
627,27665.73
628,27671.88
629,27669.72
630,27643.52
631,27595.45
632,27540.88
633,27494.98
634,27460.56
635,27425.67
636,27377.61
637,27311.64
638,27238.26
639,27169.64
640,27114.45
641,27070.18
642,27032.15
643,26995.65
644,26955.85
645,26907.84
646,26847.74
647,26780.77
648,26717.12
649,26666.52
650,26630.29
651,26602.4
652,26576.61
653,26545.78
654,26501.61
655,26435.76
656,26347.87
657,26254.31
658,26173.54
659,26117.7
660,26077.53
661,26039.27
662,25992.34
663,25943.51
664,25905.51
665,25888.98
666,25885.48
667,25876.27
668,25843.53
669,25784.87
670,25710.72
671,25631.73
672,25555.16
673,25484.12
674,25421.44
675,25370.26
676,25334.38
677,25317.63
678,25317
679,25309.66
680,25269.42
681,25180.05
682,25069.93
683,24979.86
684,24943.82
685,24949.07
686,24962.79
687,24954
688,24911.98
689,24839.02
690,24738.23
691,24625.59
692,24529.12
693,24476.59
694,24472.24
695,24488.58
696,24496.05
697,24474.11
698,24419.73
699,24331.91
700,24218.69
701,24114.13
702,24056.83
703,24070.71
704,24116.94
705,24139.91
706,24094.27
707,23999.18
708,23899.34
709,23835.92
710,23816.19
711,23828.14
712,23858.9
713,23884.96
714,23874.31
715,23796.32
716,23662.06
717,23529.05
718,23456.25
719,23458.13
720,23480.6
721,23464.09
722,23382.57
723,23282.06
724,23217.7
725,23221.87
726,23258.19
727,23277.4
728,23241.94
729,23163.74
730,23068.05
731,22977.1
732,22895.18
733,22819.8
734,22749.17
735,22687.69
736,22643.01
737,22621.71
738,22616.52
739,22610.45
740,22587.14
741,22545.57
742,22499.11
743,22461.17
744,22430.29
745,22386.46
746,22308.94
747,22201.34
748,22107.22
749,22073.51
750,22117.63
751,22192.82
752,22244.08
753,22233.94
754,22175.58
755,22091.28
756,22001.73
757,21921.64
758,21864.22
759,21838.56
760,21832.64
761,21827.54
762,21806.16
763,21763.42
764,21699.45
765,21615.96
766,21529.96
767,21466.87
768,21449.73
769,21469.8
770,21495.84
771,21497.29
772,21464.09
773,21404.57
774,21327.84
775,21248.35
776,21186.62
777,21162.85
778,21173.91
779,21183.64
780,21153.86
781,21072.54
782,20973.71
783,20895.9
784,20860.89
785,20853.74
786,20854.62
787,20846.97
788,20822.98
789,20776.37
790,20705.61
791,20625.47
792,20554.26
793,20506.15
794,20477.76
795,20460.89
796,20448.33
797,20437.96
798,20429.38
799,20421.72
800,20410.64
801,20390.4
802,20355.74
803,20305.19
804,20239.25
805,20158.83
806,20069.03
807,19977.55
808,19892.77
809,19832.7
810,19822.34
811,19883.67
812,19984.8
813,20047.64
814,19996.55
815,19839.71
816,19669.71
817,19580.25
818,19594.71
819,19653.64
820,19693.83
821,19682.96
822,19631.17
823,19551.65
824,19460.98
825,19381.15
826,19334.39
827,19328.08
828,19342.2
829,19353.88
830,19346.01
831,19313.61
832,19253.33
833,19169.59
834,19085.91
835,19028.61
836,19012.17
837,19017.75
838,19020.73
839,19003.37
840,18970.13
841,18929.95
842,18889.56
843,18847.59
844,18800.77
845,18747.21
846,18690.83
847,18637.04
848,18591.68
849,18562.62
850,18558.34
851,18582.34
852,18611.24
853,18612.76
854,18561.87
855,18476.98
856,18392.72
857,18338.45
858,18308.19
859,18281.34
860,18240.34
861,18190.51
862,18147.63
863,18125.07
864,18115.96
865,18103.35
866,18072.23
867,18025.55
868,17976.01
869,17935.29
870,17904.1
871,17876.78
872,17848.28
873,17821.48
874,17804.27
875,17803.31
876,17809.64
877,17803.81
878,17768.26
879,17712.76
880,17666.59
881,17657.08
882,17678.06
883,17698.08
884,17687.2
885,17647.75
886,17607.74
887,17593.96
888,17602.25
889,17602.61
890,17566.41
891,17502.32
892,17451.39
893,17453.19
894,17500.03
895,17541.57
896,17528.37
897,17456.72
898,17365.61
899,17294.24
900,17255.07
901,17234.92
902,17220.02
903,17205.44
904,17194.92
905,17192.19
906,17192.43
907,17182.29
908,17148.86
909,17097.91
910,17054.18
911,17041.93
912,17055.38
913,17058.06
914,17013.79
915,16925.21
916,16834.88
917,16785.44
918,16779.95
919,16780.71
920,16749.63
921,16682.15
922,16608.06
923,16557.61
924,16536.64
925,16526.21
926,16506.85
927,16472.13
928,16428.74
929,16383.91
930,16345.45
931,16321.7
932,16320.24
933,16331.39
934,16328.89
935,16287.18
936,16209.01
937,16123.75
938,16060.89
939,16033
940,16037.24
941,16069.47
942,16112.25
943,16136.35
944,16114.08
945,16049.35
946,15972.96
947,15915.25
948,15886.83
949,15882.22
950,15894.96
951,15910.27
952,15906.97
953,15866.25
954,15804.15
955,15762.36
956,15778.63
957,15833.87
958,15869.51
959,15832.06
960,15736.09
961,15640.59
962,15600.11
963,15614.35
964,15649.48
965,15673.41
966,15675.19
967,15655.89
968,15617.28
969,15565.95
970,15511.04
971,15461.8
972,15428.57
973,15422.16
974,15449.4
975,15487.97
976,15502.61
977,15464.45
978,15386.62
979,15299.32
980,15229.79
981,15187.92
982,15177.23
983,15197.39
984,15227.76
985,15241.02
986,15217.05
987,15169.79
988,15123.21
989,15096.48
990,15088.58
991,15093.21
992,15102.98
993,15106.51
994,15091.48
995,15051.27
996,14997.85
997,14946.99
998,14909.59
999,14882.51
1000,14860.15
1001,14837.9
1002,14813.7
1003,14785.93
1004,14756.14
1005,14732.93
1006,14725.84
1007,14739.56
1008,14756.58
1009,14753.03
1010,14714.14
1011,14661.38
1012,14625.27
1013,14625.26
1014,14642.78
1015,14651.06
1016,14632.06
1017,14593.51
1018,14547.91
1019,14506.35
1020,14476.49
1021,14465.38
1022,14473.51
1023,14487.11
1024,14490.67
1025,14475.92
1026,14447.94
1027,14413.28
1028,14378.86
1029,14352.3
1030,14341.04
1031,14344.08
1032,14349.27
1033,14344.11
1034,14327.36
1035,14310.27
1036,14304.07
1037,14307.36
1038,14306.96
1039,14290.42
1040,14262.17
1041,14239.7
1042,14239.09
1043,14256.93
1044,14277.47
1045,14286.93
1046,14290.33
1047,14302.46
1048,14334.21
1049,14369.78
1050,14382.28
1051,14351.9
1052,14296.45
1053,14246.05
1054,14223.55
1055,14221.88
1056,14226.26
1057,14224.31
1058,14211.2
1059,14183.61
1060,14142.83
1061,14101.6
1062,14074.31
1063,14069.43
1064,14084.16
1065,14114.28
1066,14148.49
1067,14164.87
1068,14141.56
1069,14083.1
1070,14024.7
1071,14001.84
1072,14023.13
1073,14072.88
1074,14135.06
1075,14198.97
1076,14257.66
1077,14305.55
1078,14348.45
1079,14398.17
1080,14464.56
1081,14544.93
1082,14631.65
1083,14715.16
1084,14777.08
1085,14796.51
1086,14764.02
1087,14707.79
1088,14663.66
1089,14652.25
1090,14658.08
1091,14660.49
1092,14645.5
1093,14610.61
1094,14554.69
1095,14484.94
1096,14419.1
1097,14374.51
1098,14346.35
1099,14309.31
1100,14240.07
1101,14149.45
1102,14071.16
1103,14034.23
1104,14027.07
1105,14018.56
1106,13985.32
1107,13946.05
1108,13933.51
1109,13967.86
1110,14023.43
1111,14064.18
1112,14068.26
1113,14048.85
1114,14024.4
1115,14007.8
1116,14002.53
1117,14010.98
1118,14030.79
1119,14053.86
1120,14071.64
1121,14072.29
1122,14041.35
1123,13967.36
1124,13869.59
1125,13784.72
1126,13742.19
1127,13725.85
1128,13702.19
1129,13647.55
1130,13577.25
1131,13516.16
1132,13476.54
1133,13438.4
1134,13376.98
1135,13289.8
1136,13211.82
1137,13180.3
1138,13196.55
1139,13221.74
1140,13217.48
1141,13181.94
1142,13140.48
1143,13116.37
1144,13110.57
1145,13113.19
1146,13114.12
1147,13102.47
1148,13067.07
1149,13006.03
1150,12945.39
1151,12916.24
1152,12930.06
1153,12961.33
1154,12980.89
1155,12974.83
1156,12947.69
1157,12905.34
1158,12857.26
1159,12815.76
1160,12791.12
1161,12776.84
1162,12758.23
1163,12725.03
1164,12687.87
1165,12663.53
1166,12660.6
1167,12664.96
1168,12658.77
1169,12639.13
1170,12628.22
1171,12649.39
1172,12695.2
1173,12726.25
1174,12705.45
1175,12638.8
1176,12559.87
1177,12499.2
1178,12465.84
1179,12460.68
1180,12480.37
1181,12506.77
1182,12518.62
1183,12504.72
1184,12474.09
1185,12438.08
1186,12406.48
1187,12387.22
1188,12387.2
1189,12401.24
1190,12415.57
1191,12418.17
1192,12410.05
1193,12397.67
1194,12385.5
1195,12370.77
1196,12349.12
1197,12320.26
1198,12292.19
1199,12273.66
1200,12265.4
1201,12258.84
1202,12245.97
1203,12232.78
1204,12234.73
1205,12262.57
1206,12297.09
1207,12307.76
1208,12276.8
1209,12227.54
1210,12191.35
1211,12183.61
1212,12191.85
1213,12201.25
1214,12207.48
1215,12216.5
1216,12233.73
1217,12255.16
1218,12271.67
1219,12275.67
1220,12266.99
1221,12247.6
1222,12221.19
1223,12195.5
1224,12178.72
1225,12173.37
1226,12174.72
1227,12177.41
1228,12174.37
1229,12157.29
1230,12121.75
1231,12086.77
1232,12080.09
1233,12116.98
1234,12175.94
1235,12228.83
1236,12257.5
1237,12259.02
1238,12232.68
1239,12193.08
1240,12167.31
1241,12176.97
1242,12203.15
1243,12209.74
1244,12175.17
1245,12125.9
1246,12098.03
1247,12108.12
1248,12140.6
1249,12176.93
1250,12199.15
1251,12189.79
1252,12137.88
1253,12078.49
1254,12066.63
1255,12131.19
1256,12214.84
1257,12243.34
1258,12195.67
1259,12135.69
1260,12131.01
1261,12185.81
1262,12252.96
1263,12289.48
1264,12288.75
1265,12258.69
1266,12210.86
1267,12167.47
1268,12152.24
1269,12169.03
1270,12193.8
1271,12202.12
1272,12191.5
1273,12174.62
1274,12162.12
1275,12152.07
1276,12138.43
1277,12120.69
1278,12111.25
1279,12123.8
1280,12155.94
1281,12187.3
1282,12199.02
1283,12194.61
1284,12189.57
1285,12195.68
1286,12209.93
1287,12225.8
1288,12236.61
1289,12235.46
1290,12216.23
1291,12185.99
1292,12162.4
1293,12160.33
1294,12176.01
1295,12198.86
1296,12219.63
1297,12232.55
1298,12232.56
1299,12220.3
1300,12202.93
1301,12187.54
1302,12177.66
1303,12174.97
1304,12180.16
1305,12190.54
1306,12202.68
1307,12215.34
1308,12230.51
1309,12249.83
1310,12266.42
1311,12267.56
1312,12246.7
1313,12227.07
1314,12240.53
1315,12295.08
1316,12352.59
1317,12371.88
1318,12352.94
1319,12331.01
1320,12335.91
1321,12358.44
1322,12375.07
1323,12371.98
1324,12358.24
1325,12346.08
1326,12345.6
1327,12364.73
1328,12408.43
1329,12461.43
1330,12499.73
1331,12508.57
1332,12497.99
1333,12482.14
1334,12474.78
1335,12489.26
1336,12534.56
1337,12585.63
1338,12601.41
1339,12560.81
1340,12500.63
1341,12467.03
1342,12472.04
1343,12487.72
1344,12486.92
1345,12467.64
1346,12440.01
1347,12414.21
1348,12400.06
1349,12407.01
1350,12434.41
1351,12469.82
1352,12500.88
1353,12521.36
1354,12527.93
1355,12519.53
1356,12501.39
1357,12479.98
1358,12465.46
1359,12471.99
1360,12509.31
1361,12553.88
1362,12567.75
1363,12534.89
1364,12494.27
1365,12491.88
1366,12539.56
1367,12615.96
1368,12697.92
1369,12760.03
1370,12776.14
1371,12743.97
1372,12711.83
1373,12731.06
1374,12794.83
1375,12848.52
1376,12850.71
1377,12831.28
1378,12841.29
1379,12894.91
1380,12943.41
1381,12936.89
1382,12886.11
1383,12841.39
1384,12837.7
1385,12850.96
1386,12844.06
1387,12801.54
1388,12736.22
1389,12663.78
1390,12607.47
1391,12594.27
1392,12633.3
1393,12686.86
1394,12711.21
1395,12695.93
1396,12662.31
1397,12629.99
1398,12602.69
1399,12578.75
1400,12555.51
1401,12528.59
1402,12495.09
1403,12472.51
1404,12491.64
1405,12566.75
1406,12654.02
1407,12698.19
1408,12684
1409,12643.47
1410,12607.1
1411,12575.64
1412,12537.59
1413,12494.82
1414,12477.61
1415,12516.72
1416,12596.75
1417,12668.01
1418,12693.31
1419,12687.57
1420,12678.04
1421,12679.42
1422,12690.53
1423,12707.91
1424,12719.13
1425,12707.97
1426,12669.93
1427,12625.73
1428,12598.36
1429,12597.01
1430,12620.85
1431,12662.8
1432,12693.9
1433,12681.37
1434,12630.74
1435,12592.16
1436,12607.29
1437,12648.87
1438,12663.5
1439,12630.57
1440,12589.92
1441,12584.31
1442,12617.07
1443,12667.61
1444,12717.23
1445,12753.98
1446,12767.49
1447,12755.77
1448,12724.51
1449,12681.74
1450,12644.55
1451,12632.52
1452,12656.52
1453,12715.64
1454,12804.04
1455,12887.06
1456,12917.77
1457,12883.39
1458,12838.44
1459,12840
1460,12883.83
1461,12927.46
1462,12943.08
1463,12946.28
1464,12959.1
1465,12980.79
1466,12990.89
1467,12974.81
1468,12944.79
1469,12919.61
1470,12909.24
1471,12913.31
1472,12930.4
1473,12956.64
1474,12987.23
1475,13015.54
1476,13032.1
1477,13028.8
1478,13010.32
1479,12987.4
1480,12970.28
1481,12968.15
1482,12987.77
1483,13011.41
1484,13006.44
1485,12960.2
1486,12912.31
1487,12907.49
1488,12940.78
1489,12969.73
1490,12964.29
1491,12938.34
1492,12913.89
1493,12896.56
1494,12876.96
1495,12849.45
1496,12825.78
1497,12821.72
1498,12843.25
1499,12885.64
1500,12940.92
1501,12987.85
1502,13001.94
1503,12985.16
1504,12972.86
1505,12994.73
1506,13036.32
1507,13068.04
1508,13076.49
1509,13071.37
1510,13062.87
1511,13052.69
1512,13039.29
1513,13026.38
1514,13025.93
1515,13048.7
1516,13091.54
1517,13145.07
1518,13190.27
1519,13191.79
1520,13122.42
1521,13030.02
1522,12996.84
1523,13053.91
1524,13140.26
1525,13191.77
1526,13197.49
1527,13172.16
1528,13135.62
1529,13116.83
1530,13140.67
1531,13189.96
1532,13227.09
1533,13232.32
1534,13219.2
1535,13205.08
1536,13208.81
1537,13249.79
1538,13327.59
1539,13406.12
1540,13449.1
1541,13449.19
1542,13412.71
1543,13359.5
1544,13332.46
1545,13367.65
1546,13434.46
1547,13473.35
1548,13460.97
1549,13432.19
1550,13422.39
1551,13435.42
1552,13462.3
1553,13489.54
1554,13497.12
1555,13470.26
1556,13427.74
1557,13400.03
1558,13401.29
1559,13424.49
1560,13461.95
1561,13509.88
1562,13565.42
1563,13618.42
1564,13650.46
1565,13651.15
1566,13645.64
1567,13666.8
1568,13713.06
1569,13749.94
1570,13753.06
1571,13737.39
1572,13725.48
1573,13725.36
1574,13733.65
1575,13745.95
1576,13756.08
1577,13758.08
1578,13752.59
1579,13744.43
1580,13742.52
1581,13764.28
1582,13823.76
1583,13897.07
1584,13941.65
1585,13940.83
1586,13921.17
1587,13909.57
1588,13909.58
1589,13915.97
1590,13924.92
1591,13934.41
1592,13942.56
1593,13947.62
1594,13948.27
1595,13952.17
1596,13975.34
1597,14024.11
1598,14073.68
1599,14095.74
1600,14095.09
1601,14099.01
1602,14123.58
1603,14159.67
1604,14194.6
1605,14214.22
1606,14203.97
1607,14166.83
1608,14132.02
1609,14124.79
1610,14138.25
1611,14155.6
1612,14170.02
1613,14184.92
1614,14203.64
1615,14227.66
1616,14257.06
1617,14279.28
1618,14273.16
1619,14234.45
1620,14194.7
1621,14184.7
1622,14196.29
1623,14204.6
1624,14203.05
1625,14209.65
1626,14236.6
1627,14263.86
1628,14264.19
1629,14237.01
1630,14204.14
1631,14181.87
1632,14170.62
1633,14168.3
1634,14172.43
1635,14180.36
1636,14193.77
1637,14220.75
1638,14264.02
1639,14298.22
1640,14291.65
1641,14250.38
1642,14214.09
1643,14206.41
1644,14206.08
1645,14189.4
1646,14174.21
1647,14198.93
1648,14262.92
1649,14308.6
1650,14291.32
1651,14243.66
1652,14216.55
1653,14211.07
1654,14187.89
1655,14137.48
1656,14120.83
1657,14193.33
1658,14298.79
1659,14334.28
1660,14274.14
1661,14186.54
1662,14135.85
1663,14152.68
1664,14254.68
1665,14393.42
1666,14478.63
1667,14468.93
1668,14408.42
1669,14344.39
1670,14296.7
1671,14276.13
1672,14284.3
1673,14314.86
1674,14364.5
1675,14437.82
1676,14535.09
1677,14618.7
1678,14636.37
1679,14586.03
1680,14522.58
1681,14487.92
1682,14474.23
1683,14466.01
1684,14464.15
1685,14478.24
1686,14507.88
1687,14538.6
1688,14559.32
1689,14575.9
1690,14597.56
1691,14625.96
1692,14657.85
1693,14689.72
1694,14717.89
1695,14735.99
1696,14726.21
1697,14671.53
1698,14610.65
1699,14622.21
1700,14710.73
1701,14744.93
1702,14624.42
1703,14470.73
1704,14461.01
1705,14584.26
1706,14683.18
1707,14672.39
1708,14611.37
1709,14567.49
1710,14564.97
1711,14612.67
1712,14690.08
1713,14753.56
1714,14780.21
1715,14787.8
1716,14793.66
1717,14790.49
1718,14765.67
1719,14740.25
1720,14760.53
1721,14828.74
1722,14867.01
1723,14816.14
1724,14740.28
1725,14731.01
1726,14780.49
1727,14812.34
1728,14795.44
1729,14773.59
1730,14783.15
1731,14804.27
1732,14806.85
1733,14798.47
1734,14808.83
1735,14839.38
1736,14852.78
1737,14824.91
1738,14783.47
1739,14763.96
1740,14779.57
1741,14832.16
1742,14911.47
1743,14993.97
1744,15054
1745,15062.46
1746,15003.57
1747,14946.12
1748,14983.83
1749,15086.68
1750,15120.56
1751,15041.03
1752,14975.64
1753,15028.45
1754,15120.67
1755,15134.24
1756,15062.58
1757,14967.71
1758,14908.13
1759,14936.33
1760,15063.53
1761,15182.58
1762,15184.47
1763,15095.74
1764,14998.31
1765,14948.3
1766,14978.09
1767,15073.7
1768,15135.61
1769,15088.03
1770,14995.17
1771,14951.64
1772,14987.31
1773,15093.57
1774,15220.93
1775,15272.3
1776,15206.01
1777,15124.33
1778,15126.87
1779,15177.22
1780,15197.83
1781,15182.74
1782,15176.42
1783,15192.42
1784,15198.37
1785,15169.76
1786,15115.81
1787,15055.63
1788,15031.99
1789,15091.29
1790,15185.95
1791,15194.16
1792,15086.71
1793,14983.75
1794,14979.89
1795,15044.84
1796,15126.63
1797,15197.34
1798,15239.73
1799,15248.01
1800,15225.95
1801,15187.44
1802,15161.76
1803,15165.3
1804,15169.47
1805,15147.74
1806,15145.34
1807,15228.56
1808,15344.69
1809,15351.17
1810,15232.45
1811,15160.26
1812,15234.9
1813,15316.41
1814,15265.44
1815,15179.95
1816,15222.48
1817,15337.26
1818,15329.26
1819,15183.91
1820,15107.63
1821,15204.94
1822,15322.5
1823,15315.63
1824,15229.95
1825,15157.83
1826,15150.65
1827,15234.96
1828,15358.66
1829,15398.43
1830,15326.79
1831,15278.47
1832,15344.94
1833,15440.84
1834,15463.8
1835,15406.51
1836,15296.89
1837,15178.97
1838,15106.08
1839,15098.87
1840,15141.27
1841,15213.09
1842,15290
1843,15348.21
1844,15367.97
1845,15337.69
1846,15293.58
1847,15286.64
1848,15311.5
1849,15324.65
1850,15317.15
1851,15321.3
1852,15348.06
1853,15361.26
1854,15334.68
1855,15296.33
1856,15282.13
1857,15303.38
1858,15358.5
1859,15404.77
1860,15376
1861,15292.18
1862,15265.02
1863,15338.48
1864,15430.14
1865,15467.63
1866,15445.96
1867,15377.02
1868,15296.09
1869,15240.67
1870,15201.54
1871,15147.75
1872,15096.99
1873,15106.8
1874,15178.61
1875,15237.27
1876,15245.71
1877,15259.89
1878,15322.04
1879,15384.12
1880,15391.54
1881,15367.57
1882,15359.37
1883,15370.98
1884,15381.96
1885,15378.18
1886,15351.72
1887,15304.89
1888,15253.67
1889,15206.79
1890,15155.42
1891,15105.5
1892,15119.25
1893,15242.49
1894,15371.03
1895,15368.63
1896,15253.9
1897,15123.08
1898,15045.05
1899,15064.76
1900,15158.08
1901,15223.38
1902,15211.31
1903,15168.04
1904,15133.69
1905,15109.78
1906,15095.48
1907,15103.97
1908,15143.81
1909,15176.43
1910,15156.18
1911,15131.56
1912,15193.32
1913,15300.32
1914,15312.84
1915,15218.43
1916,15147.03
1917,15134.09
1918,15055.08
1919,14871.11
1920,14767.44
1921,14881.93
1922,15097.69
1923,15260.65
1924,15287.92
1925,15143.72
1926,14974.75
1927,14980.73
1928,15101.16
1929,15132.4
1930,15068.06
1931,15060.14
1932,15127.21
1933,15136.04
1934,15061.1
1935,15051.07
1936,15157.81
1937,15204.42
1938,15084.64
1939,14971.08
1940,15017.87
1941,15116.05
1942,15119.92
1943,15031.89
1944,14906.75
1945,14820.4
1946,14845.96
1947,14925.51
1948,14931.25
1949,14871.35
1950,14856.96
1951,14897.09
1952,14896.21
1953,14834.82
1954,14798.42
1955,14830.23
1956,14890.4
1957,14933.42
1958,14918.98
1959,14842.94
1960,14800.46
1961,14859.04
1962,14922.92
1963,14890.62
1964,14808.02
1965,14755.84
1966,14763.54
1967,14832.77
1968,14896.7
1969,14865.96
1970,14752.7
1971,14629.11
1972,14571.44
1973,14649.52
1974,14768.28
1975,14697.81
1976,14469.35
1977,14391.16
1978,14533.48
1979,14645.72
1980,14601.36
1981,14497.73
1982,14417.72
1983,14382.17
1984,14397.23
1985,14451.22
1986,14521.38
1987,14562.17
1988,14525.84
1989,14369.9
1990,14106.64
1991,13949.27
1992,14084.52
1993,14371.5
1994,14591.61
1995,14596.82
1996,14320.91
1997,14059.78
1998,14166.18
1999,14412.49
2000,14377.17
2001,14142.16
2002,14013.32
2003,14021.57
2004,14050.72
2005,14090.91
2006,14191.56
2007,14275.4
2008,14186.01
2009,13950.32
2010,13739.39
2011,13683.28
2012,13863.32
2013,14156.42
2014,14255.94
2015,14113.94
2016,13955.41
2017,13867.28
2018,13768.15
2019,13659.12
2020,13650.37
2021,13746.19
2022,13804.8
2023,13749.59
2024,13609.79
2025,13442.16
2026,13332.2
2027,13338.46
2028,13471.96
2029,13655.89
2030,13677.21
2031,13478.86
2032,13294.78
2033,13268.55
2034,13328.76
2035,13392.46
2036,13397.66
2037,13343.33
2038,13340.02
2039,13413.65
2040,13400.84
2041,13253.54
2042,13196.01
2043,13307.42
2044,13310.96
2045,13075.18
2046,12848.8
2047,12812.37
2048,12914.83
2049,13063.39
2050,13138.13
2051,13080.05
2052,12957.88
2053,12833.38
2054,12724.92
2055,12639.61
2056,12572.67
2057,12533.85
2058,12561.93
2059,12649.84
2060,12703.75
2061,12697.55
2062,12735.98
2063,12815.74
2064,12737.28
2065,12477.05
2066,12312.31
2067,12341.33
2068,12361.07
2069,12300.93
2070,12306.04
2071,12412.19
2072,12492.51
2073,12455.4
2074,12270.44
2075,12049.2
2076,12047.73
2077,12246.02
2078,12339.78
2079,12245.66
2080,12100.41
2081,11990.84
2082,11950.08
2083,11967.85
2084,12001.28
2085,12011.68
2086,11971.97
2087,11947.11
2088,12031.19
2089,12034.33
2090,11677.6
2091,11281.54
2092,11355.81
2093,11617.54
2094,11557.38
2095,11402.75
2096,11535.85
2097,11687.42
2098,11516.69
2099,11308.48
2100,11370.56
2101,11444.74
2102,11299.75
2103,11209.13
2104,11369
2105,11506.37
2106,11410.41
2107,11180.28
2108,10964.73
2109,10923.47
2110,11015.14
2111,10892.96
2112,10577.78
2113,10584.2
2114,10941.16
2115,11136.68
2116,11038.99
2117,10870.61
2118,10713.46
2119,10544.66
2120,10424.07
2121,10438.64
2122,10480.3
2123,10384.85
2124,10230.57
2125,10161.27
2126,10182.54
2127,10249.27
2128,10283.73
2129,10238.6
2130,10177.87
2131,10154.99
2132,10153.73
2133,10148.81
2134,10116.51
2135,10061.96
2136,10027.02
2137,9983.67
2138,9835.697
2139,9646.973
2140,9601.891
2141,9706.205
2142,9840.448
2143,9817.939
2144,9505.119
2145,9266.683
2146,9457.759
2147,9619.107
2148,9331.89
2149,8976.171
2150,8915.108
2151,9121.157
2152,9396.748
2153,9363.243
2154,9078.425
2155,9127.645
2156,9447.289
2157,9402.602
2158,9005.321
2159,8679.756
2160,8554.297
2161,8592.393
2162,8660.963
2163,8640.147
2164,8586.847
2165,8568.693
2166,8570.256
2167,8572.761
2168,8576.864
2169,8607.83
2170,8713.547
2171,8806.095
2172,8693.449
2173,8458.756
2174,8328.069
2175,8233.96
2176,8040.519
2177,7927.6
2178,8005.812
2179,7860.342
2180,7364.496
2181,7217.051
2182,7587.745
2183,7755.168
2184,7561.358
2185,7441.014
2186,7450.292
2187,7396.612
2188,7243.863
2189,7051.2
2190,6985.681
2191,7099.663
2192,7026.499
2193,6673.316
2194,6585.713
2195,6832.212
2196,6847.378
2197,6669.052
2198,6782.186
2199,7024.857
2200,6994.111
2201,6848.413
2202,6820.405
2203,6782.024
2204,6610.798
2205,6343.102
2206,6124.273
2207,6192.377
2208,6444.735
2209,6527.049
2210,6333.122
2211,5948.263
2212,5761.048
2213,6006.401
2214,6208.901
2215,6109.436
2216,6040.781
2217,6094.573
2218,6055.149
2219,5922.583
2220,5836.008
2221,5834.863
2222,5880.256
2223,5796.935
2224,5532.08
2225,5353.076
2226,5301.051
2227,5106.506
2228,4913.219
2229,5107.763
2230,5418.74
2231,5414.757
2232,5228.964
2233,5080.512
2234,5055.97
2235,5077.381
2236,4897.149
2237,4585.722
2238,4436.425
2239,4525.213
2240,4768.159
2241,4847.078
2242,4648.302
2243,4588.039
2244,4721.818
2245,4638.203
2246,4376.742
2247,4236.294
2248,4135.359
2249,3941.717
2250,3810.645
2251,3837.615
2252,3924.709
2253,3991.311
2254,3991.201
2255,3885.931
2256,3674.968
2257,3506.529
2258,3465.164
2259,3408.341
2260,3296.509
2261,3239.736
2262,3229.321
2263,3193.264
2264,3169.04
2265,3180.562
2266,3116.01
2267,2987.089
2268,2994.597
2269,3098.828
2270,3106.472
2271,3066.732
2272,3080.113
2273,3111.788
2274,3114.668
2275,3064.604
2276,2979.483
2277,2903.677
2278,2844.799
2279,2803.035
2280,2801.139
2281,2781.764
2282,2586.01
2283,2458.664
2284,2808.771
2285,3061.87
2286,2687.187
2287,2365.457
2288,2413.574
2289,2369.302
2290,2142.531
2291,1919.113
2292,1748.506
2293,1656.158
2294,1719.263
2295,1838.084
2296,1744.463
2297,1660.422
2298,1893.503
2299,1894.349
2300,1416.17
