400,27520.85
401,27493.99
402,27435.91
403,27367.16
404,27310.71
405,27282.84
406,27269.04
407,27245.91
408,27192.35
409,27119.34
410,27062.58
411,27058.01
412,27116.13
413,27198.31
414,27260.44
415,27268.11
416,27237.38
417,27201.01
418,27190.24
419,27212.89
420,27256.9
421,27309.61
422,27359.55
423,27397.68
424,27415.24
425,27405.35
426,27371.48
427,27320.73
428,27260.41
429,27202.56
430,27163.39
431,27159.05
432,27192.41
433,27237.89
434,27266.4
435,27254.32
436,27208.33
437,27145.68
438,27083.12
439,27029.26
440,26985.76
441,26954.02
442,26931.05
443,26904.96
444,26862.83
445,26794.44
446,26703.36
447,26597.67
448,26486.18
449,26389.96
450,26339.69
451,26365.84
452,26469.34
453,26597.42
454,26691.89
455,26705.73
456,26641.52
457,26515.82
458,26346.78
459,26173.49
460,26049.2
461,26026.33
462,26109.17
463,26228.41
464,26308.87
465,26296.71
466,26215.18
467,26104.97
468,26003.43
469,25918.05
470,25839.95
471,25760.45
472,25682.46
473,25622.94
474,25599.64
475,25620.65
476,25667.68
477,25717.94
478,25750.24
479,25753.42
480,25720.46
481,25645.25
482,25538.54
483,25426.49
484,25335.57
485,25278.25
486,25239.35
487,25200.47
488,25148.09
489,25090.72
490,25043.23
491,25019.02
492,25015.65
493,25020.42
494,25020.67
495,25010.39
496,24992.59
497,24970.91
498,24946.33
499,24911.92
500,24859.3
501,24783.02
502,24697.46
503,24625.36
504,24588.33
505,24588.51
506,24610.65
507,24639.01
508,24659.41
509,24660.54
510,24631.49
511,24565.96
512,24476.38
513,24379.81
514,24292.04
515,24217.73
516,24155.39
517,24103.5
518,24060.5
519,24024.74
520,23994.63
521,23969.12
522,23948.48
523,23933.15
524,23922.09
525,23907.02
526,23877.47
527,23823.79
528,23744.78
529,23644.56
530,23527.6
531,23407.56
532,23309.57
533,23259.31
534,23267.35
535,23306.98
536,23345.9
537,23356.32
538,23333.47
539,23280.11
540,23199.67
541,23103.96
542,23010.21
543,22935.39
544,22885.81
545,22854.39
546,22833.27
547,22816.07
548,22800.06
549,22783.06
550,22761.9
551,22728.39
552,22672.76
553,22587.59
554,22490.51
555,22414.54
556,22391.64
557,22419.28
558,22455.31
559,22455.7
560,22398.75
561,22311.03
562,22225.29
563,22167.34
564,22133.57
565,22112.5
566,22093.05
567,22067.05
568,22027.88
569,21969.77
570,21904.45
571,21860.31
572,21865.96
573,21922.1
574,21981.13
575,21990.8
576,21920.66
577,21811.08
578,21716.65
579,21682.69
580,21696.29
581,21721.73
582,21725.13
583,21696.27
584,21641.92
585,21569.21
586,21487.11
587,21406.81
588,21339.61
589,21291.28
590,21255.15
591,21222.91
592,21188.9
593,21158.62
594,21140.5
595,21141.01
596,21151.15
597,21154.54
598,21135.68
599,21094.82
600,21045.36
601,21000.87
602,20964.52
603,20924.51
604,20867.99
605,20789.24
606,20700.57
607,20617.01
608,20552.67
609,20517.89
610,20521.9
611,20569.44
612,20627.87
613,20645.83
614,20575.98
615,20439.26
616,20314.57
617,20280.9
618,20352.74
619,20453.82
620,20501.46
621,20450.99
622,20347.7
623,20249.78
624,20200.49
625,20182.03
626,20160.82
627,20108.9
628,20038.57
629,19980.06
630,19961.3
631,19978.3
632,20003.53
633,20009.61
634,19986.47
635,19944.67
636,19895.84
637,19848.62
638,19805.85
639,19769.7
640,19740.74
641,19714.4
642,19685.13
643,19648.72
644,19608.14
645,19568.74
646,19535.13
647,19504.72
648,19470.99
649,19427.97
650,19379.87
651,19339.71
652,19320.41
653,19321.9
654,19326.59
655,19315.75
656,19277.37
657,19213.5
658,19128.01
659,19028.95
660,18938.79
661,18883
662,18879.85
663,18908.26
664,18933.64
665,18925.11
666,18884.77
667,18832.67
668,18788.2
669,18759.03
670,18743.13
671,18738.04
672,18736.77
673,18726.64
674,18694.79
675,18636.99
676,18565.25
677,18493.32
678,18433.05
679,18391.04
680,18372.88
681,18378.41
682,18381.4
683,18348.47
684,18254.83
685,18135.7
686,18052
687,18057.75
688,18129.37
689,18193.57
690,18179.95
691,18085.88
692,17971.96
693,17899.98
694,17891.05
695,17911.4
696,17923.69
697,17905.6
698,17864.19
699,17809.89
700,17753.58
701,17707.5
702,17684.08
703,17690.46
704,17711.02
705,17724.12
706,17711.85
707,17680.06
708,17643.99
709,17617.31
710,17598.64
711,17578.03
712,17546.12
713,17503.82
714,17460.35
715,17424.85
716,17400.35
717,17383.07
718,17368.83
719,17352.48
720,17327.24
721,17286.26
722,17228.65
723,17166.3
724,17112.69
725,17077.59
726,17059.57
727,17055.09
728,17058.33
729,17053.46
730,17022.06
731,16950.58
732,16855.15
733,16763.09
734,16699.53
735,16671.42
736,16676.17
737,16709.86
738,16751.54
739,16768.4
740,16729.37
741,16642.49
742,16552.4
743,16503.99
744,16508.11
745,16533.38
746,16546.16
747,16529.03
748,16491.07
749,16443.8
750,16396.48
751,16353.54
752,16318.75
753,16294.12
754,16276.48
755,16261.8
756,16245.97
757,16224.7
758,16193.69
759,16151.11
760,16108.22
761,16080.52
762,16079.9
763,16093.46
764,16097.63
765,16071.68
766,16021.33
767,15967.01
768,15928.03
769,15907.79
770,15898.41
771,15891.83
772,15880.74
773,15858.56
774,15819.07
775,15766.06
776,15714.6
777,15679.99
778,15663.81
779,15648.28
780,15614.42
781,15558.33
782,15502.7
783,15472.79
784,15479.96
785,15504.99
786,15524.63
787,15522.27
788,15499.43
789,15460.74
790,15411.14
791,15356.81
792,15304.14
793,15259.34
794,15227.8
795,15214.71
796,15222.37
797,15237.61
798,15242.04
799,15220.7
800,15181.21
801,15140.64
802,15113.66
803,15094.93
804,15069.02
805,15022.35
806,14961.64
807,14905.92
808,14873.14
809,14864.9
810,14870.98
811,14880.93
812,14884.39
813,14871.05
814,14831.42
815,14773.41
816,14722.52
817,14704.11
818,14718.61
819,14737.11
820,14729.62
821,14689.26
822,14640.78
823,14610.84
824,14604.52
825,14592.57
826,14543.03
827,14449.56
828,14353.12
829,14299.45
830,14309.58
831,14351.91
832,14388.23
833,14393.7
834,14376.2
835,14348.55
836,14319.75
837,14288.2
838,14250.44
839,14206.13
840,14165.11
841,14139.27
842,14134.91
843,14137.8
844,14128.96
845,14095.39
846,14049.25
847,14009.27
848,13989.63
849,13982.86
850,13975.05
851,13954.14
852,13917.69
853,13866.54
854,13803.31
855,13741.66
856,13699.36
857,13690.07
858,13700.14
859,13704.59
860,13682.95
861,13648.09
862,13628.18
863,13646.77
864,13689.46
865,13722.9
866,13717.14
867,13674
868,13612.51
869,13551.25
870,13502.77
871,13476.14
872,13478.69
873,13499.22
874,13514.9
875,13504.72
876,13471.61
877,13434.57
878,13411.48
879,13401.93
880,13392.45
881,13370.36
882,13337.66
883,13307.52
884,13292.76
885,13297.49
886,13318.9
887,13353.36
888,13387.03
889,13397.52
890,13364.25
891,13302.12
892,13256.97
893,13272.67
894,13339.17
895,13397.69
896,13390.5
897,13312.74
898,13208.81
899,13123.58
900,13074.9
901,13054.71
902,13053.82
903,13060.43
904,13060.17
905,13039.26
906,12999.03
907,12955.92
908,12926.34
909,12912.39
910,12901.64
911,12881.47
912,12849.79
913,12815.25
914,12786.78
915,12768.6
916,12760.04
917,12759.97
918,12760.3
919,12745.86
920,12702.12
921,12637.49
922,12583.95
923,12572.96
924,12601.76
925,12632.64
926,12627.82
927,12581.08
928,12517.92
929,12464.53
930,12433.72
931,12425.06
932,12437.03
933,12457.45
934,12463.8
935,12434.43
936,12373.3
937,12308.52
938,12267.95
939,12257.81
940,12264.49
941,12273.94
942,12276.27
943,12265.26
944,12235.44
945,12191.5
946,12146.79
947,12114.33
948,12097.86
949,12093.56
950,12097.2
951,12101.29
952,12095.73
953,12071.71
954,12038.13
955,12016.98
956,12027.88
957,12057.35
958,12068.82
959,12029.48
960,11954.97
961,11892.57
962,11884.97
963,11920.71
964,11955.25
965,11948.74
966,11911.53
967,11882.52
968,11895.17
969,11932.19
970,11949.52
971,11909.99
972,11833.44
973,11767.39
974,11751.96
975,11772.34
976,11789.29
977,11769.91
978,11723.38
979,11675.95
980,11649.67
981,11641.61
982,11639.67
983,11633.85
984,11625.24
985,11618.61
986,11617.66
987,11620.98
988,11625.71
989,11629.29
990,11630.57
991,11628.76
992,11622.55
993,11608.71
994,11583.55
995,11546.25
996,11505.38
997,11471.46
998,11450.2
999,11433.59
1000,11411.21
1001,11378.19
1002,11343.73
1003,11319.21
1004,11310.55
1005,11311.62
1006,11314.71
1007,11313.27
1008,11306.07
1009,11293.39
1010,11276.03
1011,11256.8
1012,11238.99
1013,11225.05
1014,11214.5
1015,11206.24
1016,11199.09
1017,11191.74
1018,11182.82
1019,11171.25
1020,11156.68
1021,11138.87
1022,11119.19
1023,11102.59
1024,11094.43
1025,11097.62
1026,11110.56
1027,11131.12
1028,11153.87
1029,11168.15
1030,11163.15
1031,11137.65
1032,11103.13
1033,11071.68
1034,11049.07
1035,11034.01
1036,11024.94
1037,11021.77
1038,11025.75
1039,11037.53
1040,11047.53
1041,11038.32
1042,10995.29
1043,10938.22
1044,10908.7
1045,10942.01
1046,11015.73
1047,11077.58
1048,11083.45
1049,11045.8
1050,11000.62
1051,10979.01
1052,10986.22
1053,11018.94
1054,11068.79
1055,11106.38
1056,11096.96
1057,11025.33
1058,10938.51
1059,10895.73
1060,10927.21
1061,10991.59
1062,11036.9
1063,11034.92
1064,11002.95
1065,10963.28
1066,10930.83
1067,10909.49
1068,10902.17
1069,10909.15
1070,10927.67
1071,10954.76
1072,10986.41
1073,11017.7
1074,11044.05
1075,11065.59
1076,11085.68
1077,11107.99
1078,11138.43
1079,11184.11
1080,11250.35
1081,11331.21
1082,11416.38
1083,11494.64
1084,11550.71
1085,11568.15
1086,11543.46
1087,11515.68
1088,11532.46
1089,11609.62
1090,11687.44
1091,11695.88
1092,11612.8
1093,11499.03
1094,11422.26
1095,11403.98
1096,11407.04
1097,11391.91
1098,11345.21
1099,11277.84
1100,11201.59
1101,11127.88
1102,11067.85
1103,11031.15
1104,11015.56
1105,11013.13
1106,11016.32
1107,11019.87
1108,11019.27
1109,11012.58
1110,11007.13
1111,11012.35
1112,11031.07
1113,11049.81
1114,11052.75
1115,11036.13
1116,11016.73
1117,11012.88
1118,11027.58
1119,11045.61
1120,11051.33
1121,11038.6
1122,11009.21
1123,10965.48
1124,10912.83
1125,10858.42
1126,10808.16
1127,10760
1128,10708.91
1129,10653.26
1130,10604.99
1131,10579.38
1132,10580
1133,10580.64
1134,10550.76
1135,10483.66
1136,10412.76
1137,10374.19
1138,10372.58
1139,10377.36
1140,10358.35
1141,10317.12
1142,10278.84
1143,10266.3
1144,10278.5
1145,10302.83
1146,10326.86
1147,10339.2
1148,10328.82
1149,10290.75
1150,10238.45
1151,10188.75
1152,10153.89
1153,10137.37
1154,10141.44
1155,10158.99
1156,10171.57
1157,10160.94
1158,10122.34
1159,10061.4
1160,9985.224
1161,9910.733
1162,9859.618
1163,9847.572
1164,9861.978
1165,9881.895
1166,9892.014
1167,9892.611
1168,9886.66
1169,9878.313
1170,9873.698
1171,9878.767
1172,9890.476
1173,9896.448
1174,9885.009
1175,9857.563
1176,9823.856
1177,9793.192
1178,9771.287
1179,9762.491
1180,9767.398
1181,9773.532
1182,9765.666
1183,9740.321
1184,9717.541
1185,9719.463
1186,9745.05
1187,9765.682
1188,9753.094
1189,9705.289
1190,9638.979
1191,9571.933
1192,9526.387
1193,9526.426
1194,9582.849
1195,9657.875
1196,9702.811
1197,9694.306
1198,9660.427
1199,9634.748
1200,9628.048
1201,9624.472
1202,9608.354
1203,9585.159
1204,9574.645
1205,9592.099
1206,9623.816
1207,9645.125
1208,9638.033
1209,9606.074
1210,9557.166
1211,9504.566
1212,9470.842
1213,9478.176
1214,9518.952
1215,9556.332
1216,9556.595
1217,9526.906
1218,9496.788
1219,9490.545
1220,9507.203
1221,9538.459
1222,9574.844
1223,9604.108
1224,9613.905
1225,9603.579
1226,9587.521
1227,9580.151
1228,9583.229
1229,9589.598
1230,9592.426
1231,9587.935
1232,9573.479
1233,9551.353
1234,9538.435
1235,9553.938
1236,9595.612
1237,9628.424
1238,9617.093
1239,9567.918
1240,9521.078
1241,9511.969
1242,9535.869
1243,9571.073
1244,9598.661
1245,9609.13
1246,9595.054
1247,9559.119
1248,9520.635
1249,9499.57
1250,9499.975
1251,9512.318
1252,9527.15
1253,9538.738
1254,9542.949
1255,9538.277
1256,9531.817
1257,9532.37
1258,9544.543
1259,9566.245
1260,9594.339
1261,9618.495
1262,9622.56
1263,9595.173
1264,9557.137
1265,9542.059
1266,9568.577
1267,9611.433
1268,9637.715
1269,9631.387
1270,9600.036
1271,9553.534
1272,9508.197
1273,9484.821
1274,9498.038
1275,9529.544
1276,9550.308
1277,9544.797
1278,9529.159
1279,9523.596
1280,9534.476
1281,9552.735
1282,9569.237
1283,9581.712
1284,9591.575
1285,9599.004
1286,9599.35
1287,9586.921
1288,9564.645
1289,9550.151
1290,9560.889
1291,9588.048
1292,9601.66
1293,9578.327
1294,9537.465
1295,9514.206
1296,9528.265
1297,9560.646
1298,9586.875
1299,9597.62
1300,9600.771
1301,9604.381
1302,9609.637
1303,9614.131
1304,9616.602
1305,9619.939
1306,9627.92
1307,9642.697
1308,9663.935
1309,9690.411
1310,9712.223
1311,9713.478
1312,9686.074
1313,9659.255
1314,9673.045
1315,9736.155
1316,9796.642
1317,9799.042
1318,9750.084
1319,9709.74
1320,9727.707
1321,9781.981
1322,9824.278
1323,9826.852
1324,9810.183
1325,9800.922
1326,9808.265
1327,9823.873
1328,9839.885
1329,9857.256
1330,9880.716
1331,9909.592
1332,9928.722
1333,9921.241
1334,9890.819
1335,9864.002
1336,9864.861
1337,9888.433
1338,9916.121
1339,9934.42
1340,9944.804
1341,9951.225
1342,9951.189
1343,9934.655
1344,9894.685
1345,9852.998
1346,9845.244
1347,9886.222
1348,9929.503
1349,9919.15
1350,9852.094
1351,9786.737
1352,9777.218
1353,9815.94
1354,9866.138
1355,9898.304
1356,9903.784
1357,9878.23
1358,9837.15
1359,9817.761
1360,9850.568
1361,9909.893
1362,9945.685
1363,9932.536
1364,9907.012
1365,9913.619
1366,9960.388
1367,10019.83
1368,10066.67
1369,10098.46
1370,10121.22
1371,10139.96
1372,10157.3
1373,10175.65
1374,10198.23
1375,10228.89
1376,10267.68
1377,10295.97
1378,10289.73
1379,10247.84
1380,10208.25
1381,10208.81
1382,10240.15
1383,10262.05
1384,10245.44
1385,10204.41
1386,10162.58
1387,10130.73
1388,10102.84
1389,10073.2
1390,10047.92
1391,10038.88
1392,10047.58
1393,10048.38
1394,10012.82
1395,9947.455
1396,9892.011
1397,9878.396
1398,9888.372
1399,9886.966
1400,9861.386
1401,9838.691
1402,9847.729
1403,9888.654
1404,9942.915
1405,9994.53
1406,10037.7
1407,10068.7
1408,10080.01
1409,10059.7
1410,10001.58
1411,9940.349
1412,9927.61
1413,9982.51
1414,10055.19
1415,10090.15
1416,10078.86
1417,10047.69
1418,10019.95
1419,10003.61
1420,10002.65
1421,10010.63
1422,10007.9
1423,9978.397
1424,9937.993
1425,9916.359
1426,9924.821
1427,9935.41
1428,9918.1
1429,9885.21
1430,9879.833
1431,9927.659
1432,9988.15
1433,10007.23
1434,9982.062
1435,9969.506
1436,10017.02
1437,10092.08
1438,10131.8
1439,10111
1440,10073.89
1441,10067.23
1442,10083.91
1443,10084.05
1444,10047.81
1445,10014.67
1446,10032.23
1447,10093.6
1448,10141.8
1449,10133.86
1450,10099.77
1451,10089.59
1452,10120.44
1453,10164.71
1454,10194.56
1455,10203.78
1456,10195.47
1457,10178.32
1458,10171.84
1459,10194.87
1460,10244.11
1461,10302.45
1462,10353.27
1463,10382.13
1464,10376.29
1465,10347.93
1466,10330.83
1467,10347.77
1468,10373.7
1469,10372.32
1470,10336.9
1471,10295.41
1472,10273.46
1473,10271.59
1474,10281.53
1475,10294.56
1476,10301.4
1477,10295.04
1478,10287.32
1479,10298.83
1480,10333.73
1481,10362.89
1482,10357.39
1483,10334.95
1484,10341.5
1485,10393.22
1486,10428.07
1487,10377.22
1488,10257.75
1489,10151.73
1490,10119.44
1491,10144.34
1492,10194.52
1493,10243.23
1494,10268.5
1495,10257.03
1496,10229.65
1497,10215.25
1498,10225.95
1499,10255.7
1500,10295.17
1501,10323.97
1502,10319.12
1503,10286.28
1504,10267.21
1505,10295.11
1506,10341.48
1507,10356.95
1508,10327.42
1509,10289.16
1510,10276.99
1511,10291.06
1512,10317.92
1513,10347.89
1514,10377.36
1515,10404.1
1516,10432.24
1517,10468.52
1518,10508.65
1519,10529.6
1520,10510.84
1521,10465.55
1522,10422.4
1523,10398.84
1524,10391.93
1525,10397.26
1526,10415.36
1527,10449.07
1528,10490.95
1529,10514.67
1530,10495.78
1531,10442.45
1532,10378.86
1533,10335.21
1534,10352.37
1535,10462.12
1536,10612.54
1537,10711.49
1538,10713.58
1539,10658.35
1540,10592.17
1541,10543.73
1542,10533.37
1543,10565.7
1544,10618.27
1545,10667.93
1546,10706.23
1547,10731.2
1548,10740.96
1549,10733.77
1550,10710.55
1551,10689.39
1552,10694.86
1553,10723.91
1554,10733.23
1555,10688.49
1556,10626.35
1557,10608.03
1558,10652.11
1559,10721.85
1560,10781.85
1561,10822.22
1562,10841.13
1563,10841.68
1564,10832.42
1565,10820.34
1566,10804.38
1567,10782.41
1568,10773.75
1569,10818.22
1570,10929.54
1571,11029.25
1572,11026
1573,10938.42
1574,10872.22
1575,10892.67
1576,10947.51
1577,10970.12
1578,10959.46
1579,10956.23
1580,10981.15
1581,11010.45
1582,11018.39
1583,11011.85
1584,11013.8
1585,11032.13
1586,11049.49
1587,11050.13
1588,11042.75
1589,11044.88
1590,11055.98
1591,11052.81
1592,11021.83
1593,10999
1594,11031.39
1595,11112.01
1596,11183.21
1597,11204.13
1598,11192.64
1599,11177.21
1600,11175.41
1601,11197.4
1602,11244.2
1603,11297.35
1604,11336.98
1605,11353.07
1606,11340.44
1607,11306.35
1608,11276.6
1609,11273.41
1610,11292.43
1611,11320.72
1612,11344.43
1613,11348.83
1614,11327.06
1615,11298.47
1616,11286.18
1617,11292.05
1618,11303.36
1619,11308.9
1620,11301.28
1621,11277.03
1622,11257.8
1623,11275.64
1624,11329.61
1625,11374.75
1626,11373.08
1627,11330.4
1628,11264.99
1629,11207.99
1630,11201.27
1631,11260.56
1632,11334.61
1633,11368.11
1634,11362.45
1635,11347.94
1636,11343.69
1637,11351.61
1638,11369.48
1639,11382.03
1640,11371.57
1641,11347.88
1642,11345.15
1643,11377.43
1644,11404.23
1645,11382.9
1646,11329.27
1647,11288.77
1648,11285.21
1649,11310.7
1650,11352.18
1651,11384.97
1652,11383.11
1653,11353.58
1654,11330.1
1655,11329.83
1656,11330.37
1657,11309.4
1658,11285.11
1659,11292.59
1660,11337.88
1661,11391.72
1662,11430.51
1663,11457.94
1664,11483.68
1665,11518.21
1666,11572.19
1667,11630.65
1668,11634.59
1669,11544.81
1670,11445.08
1671,11450.9
1672,11542.02
1673,11579.48
1674,11498.57
1675,11418.52
1676,11459.92
1677,11565.25
1678,11604.16
1679,11552.25
1680,11505.62
1681,11530.83
1682,11583.63
1683,11605.94
1684,11608.65
1685,11639.21
1686,11705.28
1687,11758.54
1688,11760.09
1689,11722.99
1690,11672.02
1691,11624.46
1692,11592.75
1693,11585.37
1694,11604.54
1695,11647.97
1696,11696.11
1697,11726.85
1698,11749.46
1699,11795.78
1700,11864.13
1701,11891.19
1702,11828.61
1703,11733.26
1704,11689.13
1705,11701.89
1706,11716.3
1707,11700.55
1708,11670.72
1709,11647.51
1710,11647.37
1711,11683.29
1712,11733.3
1713,11748.04
1714,11709.72
1715,11661.97
1716,11648.67
1717,11680.03
1718,11753.61
1719,11831.92
1720,11851.33
1721,11799.68
1722,11758.21
1723,11792.63
1724,11852.91
1725,11862.68
1726,11830.87
1727,11825.18
1728,11873.58
1729,11938.3
1730,11977.97
1731,11960.81
1732,11865.66
1733,11759.6
1734,11760.52
1735,11879.32
1736,11980.09
1737,11970.39
1738,11932.16
1739,11966.45
1740,12041.77
1741,12063.95
1742,12007.63
1743,11923.77
1744,11855.55
1745,11816.62
1746,11816.48
1747,11866.48
1748,11975.81
1749,12103.35
1750,12165.89
1751,12134.35
1752,12082.31
1753,12070.27
1754,12053.66
1755,11969.34
1756,11861.93
1757,11840.25
1758,11924.06
1759,12014.62
1760,12034.18
1761,11989.87
1762,11908.82
1763,11850.1
1764,11882.31
1765,11997.73
1766,12120.34
1767,12186.93
1768,12163.25
1769,12044.4
1770,11935.17
1771,11953.44
1772,12056.79
1773,12113.42
1774,12084.84
1775,12044.43
1776,12042.28
1777,12054.88
1778,12052.74
1779,12035.04
1780,12012.15
1781,12013.25
1782,12079.63
1783,12187.36
1784,12218.96
1785,12115.23
1786,12010.96
1787,12043.37
1788,12131.48
1789,12117.64
1790,12013.9
1791,11967.53
1792,12032.54
1793,12109.91
1794,12119.34
1795,12084.69
1796,12048.24
1797,12035.15
1798,12061.98
1799,12119.83
1800,12178.9
1801,12216.45
1802,12221.91
1803,12195.25
1804,12166.06
1805,12162.23
1806,12161.97
1807,12127.22
1808,12077.55
1809,12076.36
1810,12141.61
1811,12223.74
1812,12277.2
1813,12282.66
1814,12234.12
1815,12175.04
1816,12161.45
1817,12191.18
1818,12224.16
1819,12239.32
1820,12239.54
1821,12228.09
1822,12206.02
1823,12174.1
1824,12133.26
1825,12087.13
1826,12062.5
1827,12095.54
1828,12171.44
1829,12228.61
1830,12239.49
1831,12235.42
1832,12238.08
1833,12223.22
1834,12172.41
1835,12150.61
1836,12239.03
1837,12361.02
1838,12344.22
1839,12184.3
1840,12065.86
1841,12092.01
1842,12187.52
1843,12272.6
1844,12324.2
1845,12332.02
1846,12288.67
1847,12194.5
1848,12134.44
1849,12245.71
1850,12458.08
1851,12458.6
1852,12152.03
1853,11903.38
1854,11989.77
1855,12191.89
1856,12236.2
1857,12185.82
1858,12215.77
1859,12294.98
1860,12264.85
1861,12141.78
1862,12129.65
1863,12282.94
1864,12378.82
1865,12266.73
1866,12091.08
1867,12015.87
1868,12030.11
1869,12072.86
1870,12129.63
1871,12207.74
1872,12271.46
1873,12250.43
1874,12153.37
1875,12095.86
1876,12128.16
1877,12144.64
1878,12068.64
1879,11995.68
1880,12034.08
1881,12145.51
1882,12244.97
1883,12311.83
1884,12361.38
1885,12386.57
1886,12360.82
1887,12294.57
1888,12249.63
1889,12263.09
1890,12311.74
1891,12353.16
1892,12306.83
1893,12122.21
1894,11951.13
1895,11981.38
1896,12128.61
1897,12181.39
1898,12119.17
1899,12067.06
1900,12082.8
1901,12142.7
1902,12211.46
1903,12241.72
1904,12209.19
1905,12150.97
1906,12104.77
1907,12073.5
1908,12053.6
1909,12052.57
1910,12079.4
1911,12119.53
1912,12146.08
1913,12137.92
1914,12080.04
1915,11999.28
1916,11967.92
1917,12008.52
1918,12061.72
1919,12079.1
1920,12053.28
1921,11992.12
1922,11934.81
1923,11922.36
1924,11973.29
1925,12085.95
1926,12164.42
1927,12091.13
1928,11943.31
1929,11902.68
1930,11959.51
1931,11951.54
1932,11867.66
1933,11867.95
1934,11988.32
1935,12063.97
1936,12007.22
1937,11923.52
1938,11905.8
1939,11944.36
1940,12002.27
1941,12006.82
1942,11904.66
1943,11793.9
1944,11798.49
1945,11854.88
1946,11831.36
1947,11772.42
1948,11817.45
1949,11935.4
1950,11966.23
1951,11883.3
1952,11797.38
1953,11759.33
1954,11734.14
1955,11716.04
1956,11757.8
1957,11851.41
1958,11845.52
1959,11671.73
1960,11546.1
1961,11645.71
1962,11826.21
1963,11903.61
1964,11850.75
1965,11706.14
1966,11628.01
1967,11778.48
1968,11996.27
1969,11998.56
1970,11824.38
1971,11690.26
1972,11651.81
1973,11649.86
1974,11678.39
1975,11776.61
1976,11887.15
1977,11851.88
1978,11655.24
1979,11469.82
1980,11403.1
1981,11442.61
1982,11554.65
1983,11685.33
1984,11785.29
1985,11820.54
1986,11768.05
1987,11628.75
1988,11438.02
1989,11326.98
1990,11381.1
1991,11443.88
1992,11367.07
1993,11290.91
1994,11380.33
1995,11510.39
1996,11501.62
1997,11419.8
1998,11400.35
1999,11410.92
2000,11362.03
2001,11300.36
2002,11324.18
2003,11369.95
2004,11299.7
2005,11174.86
2006,11167.82
2007,11227.94
2008,11160.41
2009,11016.86
2010,11031.81
2011,11178.59
2012,11210.13
2013,11126.56
2014,11162.05
2015,11314.63
2016,11333.72
2017,11185.5
2018,11090.69
2019,11134.69
2020,11220.76
2021,11246.23
2022,11118.51
2023,10893.37
2024,10829.69
2025,10994.79
2026,11149.58
2027,11144.68
2028,11012.09
2029,10842.87
2030,10797.62
2031,10900.53
2032,10929.89
2033,10795.73
2034,10688.15
2035,10708.34
2036,10738.06
2037,10724.05
2038,10782.3
2039,10930.46
2040,10957.55
2041,10777.22
2042,10603.53
2043,10565.4
2044,10548.86
2045,10475.48
2046,10397.8
2047,10356.13
2048,10334.17
2049,10328.74
2050,10376.34
2051,10456.48
2052,10427.07
2053,10261.37
2054,10184.64
2055,10275.14
2056,10276.39
2057,10099.32
2058,10033.56
2059,10204.08
2060,10368.02
2061,10371.14
2062,10278.23
2063,10160.45
2064,10063.56
2065,10018.37
2066,10034.39
2067,10037.74
2068,9840.133
2069,9532.915
2070,9597.694
2071,10036.03
2072,10200.28
2073,9955.367
2074,9828.959
2075,9956.796
2076,9998.583
2077,9867.491
2078,9760.74
2079,9759.124
2080,9820.202
2081,9902.834
2082,9970.777
2083,9981.728
2084,9894.598
2085,9749.557
2086,9638.57
2087,9586.588
2088,9577.125
2089,9611.032
2090,9690.006
2091,9738.328
2092,9661.977
2093,9513.207
2094,9398.224
2095,9361.529
2096,9409.18
2097,9468.374
2098,9453.331
2099,9335.376
2100,9128.398
2101,8946.599
2102,8881.207
2103,8876.021
2104,8870.247
2105,8868.196
2106,8888.557
2107,8957.744
2108,9051.864
2109,9052.879
2110,8926.643
2111,8785.41
2112,8729.909
2113,8823.619
2114,8979.774
2115,8964.591
2116,8786.729
2117,8666.25
2118,8652.302
2119,8662.085
2120,8606.888
2121,8423.012
2122,8263.483
2123,8339.179
2124,8564.665
2125,8740.946
2126,8675.516
2127,8314.754
2128,8120.809
2129,8392.496
2130,8598.414
2131,8399.606
2132,8230.018
2133,8304.116
2134,8268.965
2135,8032.193
2136,7928.34
2137,8020.973
2138,8060.311
2139,7968.801
2140,7826.072
2141,7724.343
2142,7745.133
2143,7841.289
2144,7912.898
2145,7918.325
2146,7857.289
2147,7815.101
2148,7843.369
2149,7818.72
2150,7667.203
2151,7503.238
2152,7431.836
2153,7494.639
2154,7586.375
2155,7444.56
2156,7137.979
2157,7021.397
2158,7128.19
2159,7276.887
2160,7354.275
2161,7297.939
2162,7133.307
2163,6930.929
2164,6817.78
2165,6847.232
2166,6843.96
2167,6749.294
2168,6784.178
2169,6986.631
2170,7122.283
2171,7082.63
2172,6903.039
2173,6736.936
2174,6767.28
2175,6848.433
2176,6748.751
2177,6541.103
2178,6358.956
2179,6233.517
2180,6168.974
2181,6155.007
2182,6170.641
2183,6182.405
2184,6160.615
2185,6083.803
2186,5973.298
2187,5878.087
2188,5841.26
2189,5875.825
2190,5870.022
2191,5748.407
2192,5643.899
2193,5627.869
2194,5589.57
2195,5522.655
2196,5560.629
2197,5631.881
2198,5531.699
2199,5410.4
2200,5507.032
2201,5530.77
2202,5229.363
2203,5038.094
2204,5222.462
2205,5436.065
2206,5429.101
2207,5182.191
2208,4935.262
2209,5055.292
2210,5303.427
2211,5255.356
2212,5099.38
2213,5079.653
2214,5056.823
2215,4945.282
2216,4869.401
2217,4841.479
2218,4747.246
2219,4683.758
2220,4823.979
2221,4888.572
2222,4594.288
2223,4312.605
2224,4313.374
2225,4334.634
2226,4258.021
2227,4226.003
2228,4273.142
2229,4329.249
2230,4254.904
2231,3986.447
2232,3886.495
2233,4147.309
2234,4340.236
2235,4243.857
2236,4016.014
2237,3780.447
2238,3608.154
2239,3518.503
2240,3499.015
2241,3500.314
2242,3511.203
2243,3613.545
2244,3747.025
2245,3691.046
2246,3485.635
2247,3327.909
2248,3263.599
2249,3244.691
2250,3112.96
2251,2903.594
2252,2990.302
2253,3300.189
2254,3367.536
2255,3221.485
2256,3088.341
2257,2904.66
2258,2685.967
2259,2783.651
2260,3120.37
2261,3109.711
2262,2845.54
2263,2769.407
2264,2686.78
2265,2399.184
2266,2283.009
2267,2445.002
2268,2502.496
2269,2441.875
2270,2509.512
2271,2662.026
2272,2776.964
2273,2841.154
2274,2801.389
2275,2531.33
2276,2206.896
2277,2175.76
2278,2292.336
2279,2308.583
2280,2284.249
2281,2266.956
2282,2197.954
2283,2049.015
2284,1848.729
2285,1787.944
2286,1969.723
2287,2073.815
2288,2051.045
2289,2284.382
2290,2501.552
2291,2149.108
2292,1753.651
2293,1782.079
2294,1681.982
2295,1354.791
2296,1346.379
2297,1507.918
2298,1421.456
2299,1319.934
2300,1422.182
