400,8184.123
401,8160.7
402,8154.935
403,8158.838
404,8163.205
405,8160.479
406,8150.61
407,8135.712
408,8117.912
409,8099.629
410,8083.505
411,8072.169
412,8067.343
413,8069.005
414,8076.943
415,8090.191
416,8103.812
417,8111.576
418,8107.658
419,8092.901
420,8073.803
421,8057.004
422,8048.307
423,8051.788
424,8071.283
425,8107.688
426,8145.2
427,8162.181
428,8138.51
429,8080.348
430,8016.962
431,7978.178
432,7978.273
433,7998.48
434,8015.871
435,8011.288
436,7986.387
437,7950.107
438,7911.212
439,7875.924
440,7848.282
441,7832.22
442,7829.112
443,7835.155
444,7845.928
445,7857.114
446,7864.779
447,7865.13
448,7854.648
449,7833.716
450,7805.786
451,7774.375
452,7742.506
453,7712.323
454,7685.87
455,7665.118
456,7651.755
457,7647.39
458,7653.041
459,7662.483
460,7664.589
461,7648.358
462,7612.28
463,7569.357
464,7533.757
465,7514.474
466,7501.784
467,7481.742
468,7442.601
469,7392.824
470,7351.929
471,7338.933
472,7355.111
473,7380.178
474,7392.654
475,7379.914
476,7353.668
477,7329.723
478,7321.327
479,7324.802
480,7329.492
481,7325.176
482,7309.662
483,7288.102
484,7265.874
485,7246.26
486,7228.416
487,7211.006
488,7193.329
489,7177.541
490,7166.621
491,7163.1
492,7164.417
493,7164.733
494,7158.291
495,7144.027
496,7127.258
497,7113.736
498,7106.653
499,7101.651
500,7092.991
501,7076.212
502,7055.554
503,7038.914
504,7033.613
505,7036.409
506,7034.663
507,7015.562
508,6976.151
509,6931.611
510,6899.001
511,6890.072
512,6895.406
513,6900.279
514,6891.624
515,6871.301
516,6849.321
517,6835.451
518,6831.641
519,6831.195
520,6827.019
521,6815.001
522,6797.728
523,6778.69
524,6761.014
525,6746.093
526,6734.795
527,6727.571
528,6720.242
529,6705.706
530,6677.101
531,6636.304
532,6596.037
533,6569.613
534,6563.445
535,6566.866
536,6566.658
537,6552.555
538,6529.545
539,6507.585
540,6495.728
541,6492.811
542,6490.959
543,6482.369
544,6464.425
545,6441.038
546,6416.514
547,6394.454
548,6376.778
549,6365.142
550,6360.347
551,6358.913
552,6356.029
553,6347.41
554,6334.271
555,6321.21
556,6312.726
557,6309.38
558,6307.209
559,6302.035
560,6292.239
561,6281.744
562,6275.175
563,6275.124
564,6275.483
565,6267.841
566,6245.224
567,6213.028
568,6183.07
569,6166.661
570,6164.351
571,6166.42
572,6162.848
573,6148.652
574,6127.574
575,6104.208
576,6082.557
577,6064.751
578,6052.52
579,6046.833
580,6043.791
581,6037.589
582,6023.028
583,6002.779
584,5985.147
585,5978.294
586,5981.989
587,5985.398
588,5977.083
589,5952.056
590,5919.859
591,5891.986
592,5876.927
593,5870.71
594,5866.102
595,5856.432
596,5839.329
597,5814.498
598,5782.016
599,5748.129
600,5724.274
601,5721.768
602,5740.958
603,5766.389
604,5781.471
605,5775.967
606,5755.535
607,5728.271
608,5701.427
609,5678.611
610,5662.375
611,5654.722
612,5653.097
613,5652.662
614,5648.804
615,5640.709
616,5630.789
617,5621.508
618,5613.633
619,5605.537
620,5595.418
621,5582.49
622,5568.349
623,5554.935
624,5543.699
625,5534.092
626,5525.049
627,5515.366
628,5502.778
629,5484.553
630,5458.315
631,5426.592
632,5395.521
633,5371.189
634,5356.383
635,5349.977
636,5350.604
637,5355.551
638,5359.49
639,5356.823
640,5345.348
641,5333.683
642,5332.566
643,5349.239
644,5372.2
645,5383.673
646,5368.303
647,5332.939
648,5296.612
649,5277.396
650,5275.406
651,5275.193
652,5261.164
653,5230.34
654,5196.738
655,5175.468
656,5174.017
657,5183.778
658,5194.136
659,5196.494
660,5189.03
661,5171.369
662,5144.243
663,5114.544
664,5091.266
665,5082.069
666,5082.55
667,5081.776
668,5069.498
669,5047.121
670,5025.694
671,5016.263
672,5021.746
673,5034.964
674,5048.154
675,5054.989
676,5051.8
677,5035.232
678,5004.664
679,4967.31
680,4931.757
681,4904.326
682,4881.302
683,4856.174
684,4824.026
685,4791.078
686,4768.317
687,4765.527
688,4778.946
689,4796.147
690,4805.099
691,4803.551
692,4798.375
693,4796.597
694,4798.295
695,4794.163
696,4774.349
697,4737.715
698,4700.207
699,4679.673
700,4686.64
701,4710.629
702,4737.438
703,4755.27
704,4762.485
705,4760.185
706,4749.571
707,4732.561
708,4711.344
709,4688.18
710,4666.116
711,4648.633
712,4638.974
713,4636.644
714,4638.166
715,4640.021
716,4639.446
717,4634.527
718,4623.433
719,4606.34
720,4586.522
721,4567.492
722,4551.306
723,4536.886
724,4522.757
725,4508.856
726,4499.415
727,4499.461
728,4511.553
729,4527.653
730,4536.901
731,4530.249
732,4509.521
733,4480.65
734,4449.481
735,4421.191
736,4400.6
737,4391.921
738,4391.71
739,4391.142
740,4381.868
741,4366.799
742,4359.407
743,4373.075
744,4405.919
745,4437.11
746,4444.932
747,4422.133
748,4385.17
749,4352.593
750,4335.14
751,4326.607
752,4318.587
753,4305.198
754,4287.862
755,4269.319
756,4251.946
757,4236.753
758,4224.408
759,4215.816
760,4213.12
761,4218.868
762,4234.43
763,4252.942
764,4264.029
765,4258.378
766,4236.602
767,4204.835
768,4169.308
769,4137.108
770,4115.925
771,4112.887
772,4124.869
773,4139.535
774,4144.559
775,4135.741
776,4118.044
777,4096.897
778,4077.76
779,4066.15
780,4067.497
781,4081.486
782,4097.676
783,4104.659
784,4096.591
785,4079.869
786,4062.491
787,4049.02
788,4034.552
789,4012.577
790,3981.176
791,3954.385
792,3949.645
793,3977.054
794,4014.871
795,4032.759
796,4007.928
797,3958.196
798,3915.071
799,3904.839
800,3918.943
801,3934.351
802,3930.7
803,3910.068
804,3885.867
805,3870.479
806,3864.855
807,3862.992
808,3859.202
809,3853.162
810,3848.422
811,3848.213
812,3848.764
813,3840.306
814,3813.485
815,3772.263
816,3734.011
817,3716.154
818,3721.546
819,3735.876
820,3744.108
821,3739.964
822,3729.178
823,3718.29
824,3711.037
825,3706.703
826,3704.173
827,3702.11
828,3698.766
829,3692.362
830,3681.78
831,3667.325
832,3649.485
833,3630.354
834,3616
835,3613.062
836,3624.146
837,3640.472
838,3651.286
839,3649.307
840,3638.457
841,3624.911
842,3613.461
843,3603.806
844,3594.461
845,3584.906
846,3578.673
847,3580.36
848,3592.069
849,3604.018
850,3602.9
851,3578.836
852,3540.253
853,3501.701
854,3476.013
855,3465.911
856,3470.324
857,3487.021
858,3505.922
859,3513.714
860,3499.569
861,3471.177
862,3444.665
863,3434.247
864,3438.223
865,3446.954
866,3451.552
867,3450.3
868,3445.381
869,3438.902
870,3431.909
871,3424.829
872,3417.917
873,3409.612
874,3397.217
875,3378.553
876,3357.986
877,3344.27
878,3345.459
879,3359.48
880,3377.02
881,3389.058
882,3392.577
883,3389.113
884,3380.309
885,3367.853
886,3353.466
887,3338.908
888,3326.717
889,3320.071
890,3321.902
891,3330.392
892,3339.607
893,3343.684
894,3340.402
895,3330.835
896,3316.283
897,3300.42
898,3289.126
899,3287.99
900,3294.957
901,3300.645
902,3295.863
903,3281.569
904,3268.679
905,3267.93
906,3277.196
907,3281.479
908,3266.066
909,3234.848
910,3210.605
911,3215.896
912,3249.708
913,3286.881
914,3302.023
915,3288.646
916,3259.721
917,3228.868
918,3204.719
919,3190.78
920,3189.974
921,3197.298
922,3199.592
923,3183.952
924,3151.171
925,3115.999
926,3093.308
927,3087.416
928,3092.032
929,3100.505
930,3108.111
931,3112.027
932,3109.647
933,3100.995
934,3088.652
935,3075.286
936,3063.528
937,3055.968
938,3055.028
939,3060.075
940,3067.68
941,3074.264
942,3075.154
943,3064.71
944,3037.913
945,3000.86
946,2969.091
947,2957.464
948,2965.621
949,2980.82
950,2990.529
951,2990.216
952,2981.557
953,2966.565
954,2949.789
955,2937.637
956,2936.048
957,2944.566
958,2958.29
959,2972.358
960,2983.217
961,2988.176
962,2984.938
963,2975.229
964,2963.231
965,2953.038
966,2947.611
967,2949.271
968,2959.457
969,2971.829
970,2975.959
971,2963.172
972,2939.189
973,2916.721
974,2906.821
975,2908.284
976,2914.442
977,2918.854
978,2916.579
979,2903.3
980,2877.267
981,2851.945
982,2846.364
983,2873.524
984,2914.463
985,2939.685
986,2927.77
987,2895.402
988,2870.515
989,2873.512
990,2893.25
991,2910.304
992,2910.166
993,2896.543
994,2877.381
995,2859.547
996,2846.419
997,2840.649
998,2842.779
999,2847.268
1000,2847.501
1001,2839.499
1002,2825.926
1003,2810.475
1004,2796.215
1005,2784.847
1006,2777.885
1007,2776.401
1008,2779.441
1009,2785.471
1010,2792.632
1011,2797.749
1012,2797.323
1013,2789.357
1014,2777.037
1015,2764.66
1016,2755.513
1017,2749.901
1018,2747.576
1019,2748.123
1020,2750.7
1021,2754.4
1022,2757.267
1023,2755.078
1024,2743.373
1025,2723.04
1026,2704.835
1027,2700.402
1028,2712.189
1029,2728.258
1030,2735.641
1031,2729.329
1032,2714.816
1033,2698.26
1034,2684.655
1035,2677.694
1036,2680.805
1037,2693.593
1038,2712.104
1039,2732.078
1040,2746.469
1041,2746.089
1042,2723.214
1043,2687.278
1044,2658.604
1045,2655.071
1046,2671.936
1047,2692.758
1048,2703.214
1049,2703.861
1050,2701.443
1051,2701.527
1052,2703.399
1053,2704.276
1054,2702.339
1055,2699.739
1056,2699.647
1057,2703.245
1058,2705.382
1059,2699.668
1060,2683.822
1061,2665.71
1062,2654.679
1063,2654.902
1064,2660.625
1065,2665.038
1066,2664.453
1067,2659.848
1068,2652.659
1069,2646.819
1070,2649.167
1071,2666.075
1072,2692.088
1073,2711.096
1074,2708.238
1075,2689.222
1076,2673.984
1077,2680.629
1078,2708.642
1079,2747.738
1080,2787.875
1081,2821.023
1082,2839.95
1083,2840.504
1084,2832.614
1085,2830.219
1086,2841.866
1087,2858.396
1088,2867.046
1089,2861.842
1090,2852.936
1091,2852.697
1092,2864.168
1093,2874.252
1094,2868.564
1095,2843.824
1096,2810.82
1097,2780.957
1098,2760.056
1099,2748.763
1100,2747.152
1101,2750.664
1102,2751.625
1103,2743.527
1104,2729.571
1105,2717.626
1106,2713.677
1107,2713.49
1108,2709.417
1109,2697.059
1110,2683.856
1111,2679.914
1112,2690.468
1113,2708.708
1114,2726.02
1115,2735.806
1116,2734.911
1117,2720.751
1118,2698.345
1119,2681.757
1120,2684.453
1121,2701.441
1122,2712.455
1123,2699.218
1124,2667.367
1125,2636.123
1126,2621.584
1127,2619.747
1128,2618.963
1129,2610.719
1130,2598.934
1131,2590.587
1132,2589.222
1133,2589.617
1134,2585.211
1135,2572.247
1136,2551.672
1137,2525.029
1138,2498.163
1139,2481.732
1140,2485.56
1141,2504.074
1142,2520.242
1143,2519.172
1144,2505.47
1145,2493.22
1146,2493.571
1147,2502.981
1148,2513.407
1149,2518.635
1150,2517.964
1151,2511.739
1152,2501.438
1153,2490.684
1154,2483.264
1155,2480.684
1156,2481.697
1157,2484.817
1158,2487.46
1159,2486.193
1160,2477.948
1161,2462.798
1162,2442.342
1163,2419.648
1164,2404.649
1165,2409.283
1166,2436.987
1167,2467.605
1168,2477.145
1169,2457.964
1170,2429.884
1171,2414.699
1172,2418.125
1173,2429.185
1174,2436.852
1175,2438.39
1176,2436.356
1177,2432.883
1178,2426.959
1179,2416.37
1180,2400.666
1181,2385.533
1182,2377.952
1183,2380.283
1184,2385.625
1185,2386.131
1186,2379.175
1187,2368.345
1188,2357.497
1189,2349.214
1190,2345.177
1191,2346.588
1192,2351.574
1193,2356.989
1194,2359.771
1195,2357.183
1196,2346.587
1197,2329.086
1198,2313.37
1199,2308.769
1200,2315.855
1201,2324.964
1202,2326.633
1203,2321.1
1204,2315.163
1205,2314.803
1206,2320.256
1207,2329.583
1208,2340.045
1209,2346.354
1210,2342.784
1211,2330.131
1212,2320.577
1213,2326.839
1214,2348.053
1215,2370.025
1216,2379.141
1217,2372.501
1218,2353.064
1219,2325.268
1220,2300.122
1221,2290.522
1222,2302.353
1223,2324.772
1224,2344.641
1225,2354.467
1226,2354.022
1227,2343.888
1228,2329.038
1229,2317.535
1230,2315.906
1231,2321.071
1232,2326.383
1233,2326.867
1234,2322.506
1235,2314.224
1236,2304.526
1237,2298.333
1238,2300.371
1239,2308.875
1240,2316.788
1241,2318.131
1242,2315.5
1243,2315.126
1244,2320.458
1245,2325.756
1246,2323.472
1247,2312.576
1248,2302.74
1249,2303.99
1250,2314.889
1251,2324.217
1252,2322.53
1253,2315.31
1254,2314.498
1255,2327.367
1256,2345.757
1257,2358.424
1258,2359.656
1259,2352.579
1260,2341.156
1261,2330.12
1262,2324.817
1263,2329.536
1264,2341.56
1265,2355.381
1266,2365.287
1267,2365.013
1268,2348.414
1269,2320.101
1270,2299.744
1271,2306.211
1272,2333.259
1273,2357.218
1274,2358.98
1275,2345.32
1276,2331.455
1277,2326.556
1278,2325.601
1279,2321.745
1280,2314.162
1281,2308.735
1282,2311.139
1283,2321.827
1284,2338.459
1285,2357.553
1286,2371.384
1287,2371.301
1288,2356.313
1289,2338.482
1290,2330.536
1291,2335.106
1292,2346.695
1293,2359.866
1294,2370.976
1295,2377.037
1296,2375.828
1297,2367.05
1298,2350.852
1299,2331.802
1300,2319.491
1301,2322.259
1302,2334.828
1303,2344.806
1304,2343.802
1305,2337.819
1306,2335.917
1307,2340.031
1308,2341.256
1309,2330.974
1310,2315.99
1311,2313.75
1312,2336.085
1313,2367.27
1314,2383.549
1315,2374.797
1316,2357.289
1317,2349.525
1318,2355.29
1319,2365.777
1320,2372.668
1321,2373.039
1322,2365.953
1323,2353.613
1324,2345.545
1325,2351.901
1326,2372.657
1327,2397.563
1328,2417.034
1329,2429.432
1330,2436.516
1331,2440.193
1332,2442.711
1333,2446.342
1334,2452.244
1335,2460.33
1336,2469.859
1337,2475.498
1338,2469.758
1339,2449.892
1340,2426.861
1341,2413.816
1342,2414.64
1343,2422.381
1344,2429.869
1345,2433.291
1346,2430.453
1347,2421.301
1348,2411.99
1349,2409.618
1350,2415.327
1351,2423.317
1352,2427.921
1353,2427.637
1354,2422.937
1355,2416.089
1356,2414.331
1357,2425.328
1358,2444.711
1359,2454.937
1360,2441.779
1361,2419.605
1362,2415.186
1363,2441.079
1364,2474.141
1365,2486.787
1366,2475.704
1367,2461.215
1368,2461.254
1369,2473.12
1370,2486.401
1371,2494.546
1372,2499.251
1373,2503.188
1374,2507.7
1375,2513.043
1376,2519.485
1377,2527.498
1378,2537.595
1379,2548.229
1380,2554.342
1381,2551.081
1382,2540.145
1383,2527.517
1384,2518.118
1385,2512.678
1386,2510.905
1387,2510.058
1388,2504.215
1389,2488.74
1390,2471.369
1391,2465.86
1392,2477.664
1393,2490.365
1394,2484.888
1395,2461.398
1396,2438.332
1397,2430.976
1398,2433.373
1399,2432.465
1400,2423.271
1401,2415.306
1402,2418.584
1403,2430.905
1404,2442.1
1405,2444.522
1406,2439.817
1407,2431.641
1408,2423.667
1409,2419.581
1410,2422.097
1411,2427.217
1412,2428.175
1413,2423.108
1414,2420.578
1415,2429.737
1416,2448.921
1417,2468.424
1418,2479.547
1419,2478.35
1420,2462.315
1421,2439.374
1422,2430.673
1423,2453.061
1424,2486.369
1425,2494.449
1426,2463.175
1427,2425.637
1428,2418.465
1429,2442.104
1430,2470.719
1431,2483.751
1432,2482.251
1433,2472.181
1434,2459.105
1435,2448.122
1436,2443.629
1437,2445.736
1438,2452.908
1439,2463.067
1440,2473.166
1441,2480.305
1442,2484.442
1443,2487.266
1444,2489.107
1445,2486.294
1446,2474.766
1447,2457.222
1448,2442.586
1449,2438.932
1450,2449.253
1451,2474.921
1452,2509.177
1453,2534.25
1454,2534.774
1455,2518.322
1456,2502.328
1457,2496.204
1458,2493.445
1459,2486.609
1460,2478.611
1461,2478.824
1462,2491.435
1463,2505.6
1464,2508.541
1465,2501.061
1466,2495.74
1467,2501.75
1468,2512.754
1469,2518.664
1470,2515.563
1471,2506.787
1472,2496.434
1473,2490.542
1474,2495.726
1475,2511.266
1476,2525.05
1477,2525.868
1478,2517.553
1479,2510.983
1480,2511.68
1481,2514.23
1482,2512.409
1483,2505.616
1484,2496.653
1485,2487.866
1486,2480.276
1487,2474.663
1488,2471.368
1489,2470.393
1490,2470.581
1491,2467.036
1492,2454.667
1493,2439.893
1494,2439.716
1495,2464.124
1496,2493.27
1497,2500.563
1498,2480.895
1499,2452.537
1500,2433.087
1501,2430.914
1502,2451.293
1503,2486.669
1504,2513.336
1505,2512.273
1506,2496.98
1507,2491.951
1508,2502.458
1509,2506.368
1510,2484.818
1511,2453.7
1512,2442.348
1513,2460.625
1514,2487.675
1515,2502.508
1516,2502.854
1517,2494.531
1518,2483.063
1519,2473.4
1520,2470.136
1521,2475.437
1522,2490.304
1523,2511.626
1524,2528.95
1525,2532.682
1526,2526.498
1527,2520.434
1528,2519.53
1529,2519.542
1530,2515.989
1531,2510.701
1532,2508.562
1533,2510.288
1534,2508.872
1535,2497.875
1536,2482.405
1537,2473.121
1538,2476.05
1539,2488.766
1540,2507.063
1541,2519.869
1542,2513.041
1543,2485.276
1544,2457.414
1545,2449.683
1546,2461.541
1547,2483.348
1548,2507.676
1549,2530.737
1550,2549.441
1551,2563.248
1552,2572.615
1553,2576.625
1554,2572.355
1555,2558.441
1556,2543.492
1557,2539.488
1558,2549.24
1559,2563.672
1560,2573.944
1561,2576.538
1562,2569.775
1563,2557.747
1564,2551.032
1565,2556.861
1566,2566.882
1567,2569.331
1568,2567.038
1569,2576.772
1570,2606.811
1571,2634.408
1572,2632.347
1573,2608.333
1574,2597.707
1575,2619.128
1576,2643.46
1577,2637.284
1578,2611.99
1579,2607.489
1580,2640.083
1581,2674.367
1582,2673.492
1583,2645.737
1584,2621.804
1585,2619.603
1586,2635.519
1587,2663.227
1588,2692.312
1589,2711.032
1590,2717.125
1591,2720.264
1592,2729.138
1593,2744.604
1594,2765.03
1595,2782.022
1596,2780.838
1597,2756.268
1598,2733.534
1599,2740.817
1600,2768.381
1601,2780.778
1602,2764.546
1603,2754.969
1604,2786.589
1605,2836.441
1606,2854.683
1607,2826.68
1608,2790.878
1609,2782.03
1610,2792.89
1611,2803.432
1612,2810.023
1613,2825.863
1614,2856.392
1615,2878.989
1616,2868.077
1617,2834.607
1618,2814.51
1619,2824.037
1620,2837.165
1621,2826.693
1622,2796.084
1623,2762.218
1624,2737.266
1625,2727.015
1626,2732.925
1627,2739.78
1628,2729.202
1629,2706.196
1630,2695.434
1631,2707.603
1632,2716.505
1633,2694.989
1634,2658
1635,2641.735
1636,2658.061
1637,2682.1
1638,2691.091
1639,2686.941
1640,2678.752
1641,2673.823
1642,2677.845
1643,2692.031
1644,2706.118
1645,2708.921
1646,2697.546
1647,2673.468
1648,2644.443
1649,2627.262
1650,2633.595
1651,2649.225
1652,2653.783
1653,2643.765
1654,2629.384
1655,2620.553
1656,2625.526
1657,2649.455
1658,2676.668
1659,2682.973
1660,2665.581
1661,2647.681
1662,2646.743
1663,2654.751
1664,2659.161
1665,2659.353
1666,2662.264
1667,2670.082
1668,2676.588
1669,2677.001
1670,2678.119
1671,2689.453
1672,2702.976
1673,2695.345
1674,2660.295
1675,2632.852
1676,2646.71
1677,2683.867
1678,2705.077
1679,2698.752
1680,2684.773
1681,2678.225
1682,2674.198
1683,2665.33
1684,2656.916
1685,2660.859
1686,2676.46
1687,2685.352
1688,2674.553
1689,2656.598
1690,2648.818
1691,2653.464
1692,2663.057
1693,2671.865
1694,2677.294
1695,2676.544
1696,2664.678
1697,2637.667
1698,2612.24
1699,2620.054
1700,2667.871
1701,2716.756
1702,2731.299
1703,2717.368
1704,2693.251
1705,2674.774
1706,2675.767
1707,2698.935
1708,2725.876
1709,2739.423
1710,2740.961
1711,2737.414
1712,2730.98
1713,2720.15
1714,2707.451
1715,2703.258
1716,2714.941
1717,2730.63
1718,2733.647
1719,2724.439
1720,2716.43
1721,2715.27
1722,2712.084
1723,2700.328
1724,2690.948
1725,2698.553
1726,2720.61
1727,2742.657
1728,2750.956
1729,2733.364
1730,2688.588
1731,2657.411
1732,2684.179
1733,2740.047
1734,2753.395
1735,2709.504
1736,2672.063
1737,2686.064
1738,2717.906
1739,2723.682
1740,2705.216
1741,2686.596
1742,2686.181
1743,2715.783
1744,2770.016
1745,2801.529
1746,2769.484
1747,2712.805
1748,2697.051
1749,2726.432
1750,2753.338
1751,2750
1752,2728.476
1753,2704.555
1754,2691.341
1755,2698.772
1756,2709.591
1757,2690.657
1758,2644.505
1759,2620.905
1760,2650.625
1761,2699.843
1762,2728.44
1763,2733.585
1764,2727.637
1765,2715.631
1766,2696.059
1767,2673.643
1768,2665.214
1769,2683.759
1770,2720.363
1771,2760.317
1772,2788.689
1773,2790.827
1774,2766.244
1775,2731.249
1776,2705.141
1777,2712.035
1778,2765.06
1779,2812.823
1780,2788.522
1781,2715.748
1782,2681.46
1783,2713.049
1784,2750.737
1785,2748.747
1786,2722.901
1787,2698.863
1788,2692.257
1789,2713.235
1790,2747.611
1791,2761.959
1792,2744.917
1793,2720.788
1794,2709.909
1795,2709.628
1796,2713.679
1797,2722.636
1798,2739.527
1799,2760.378
1800,2775.462
1801,2778.318
1802,2767.944
1803,2745.573
1804,2717.936
1805,2693.118
1806,2680.789
1807,2689.878
1808,2708.103
1809,2707.162
1810,2680.566
1811,2654.052
1812,2648.76
1813,2665.861
1814,2700.563
1815,2734
1816,2744.315
1817,2733.479
1818,2719.127
1819,2715.196
1820,2730.71
1821,2759.812
1822,2764.098
1823,2716.815
1824,2660.928
1825,2651.492
1826,2683.941
1827,2723.459
1828,2742.333
1829,2720.114
1830,2669.831
1831,2659.111
1832,2723.87
1833,2788.652
1834,2776.416
1835,2722.597
1836,2696.876
1837,2699.95
1838,2689.502
1839,2661.98
1840,2657.734
1841,2690.196
1842,2715.88
1843,2702.383
1844,2679.452
1845,2683.896
1846,2709.303
1847,2733.006
1848,2745.935
1849,2748.64
1850,2746.459
1851,2750.055
1852,2761.21
1853,2763.468
1854,2746.88
1855,2731.662
1856,2739.299
1857,2758.101
1858,2764.663
1859,2748.159
1860,2707.095
1861,2669.669
1862,2694.897
1863,2782.086
1864,2823.508
1865,2754.136
1866,2666.287
1867,2655.845
1868,2690.462
1869,2703.881
1870,2688.459
1871,2666.725
1872,2650.587
1873,2642.846
1874,2649.146
1875,2679.191
1876,2724.05
1877,2734.438
1878,2682.929
1879,2637.074
1880,2667.082
1881,2736.36
1882,2775.587
1883,2775.536
1884,2760.739
1885,2738.711
1886,2701.867
1887,2662.287
1888,2659.464
1889,2703.073
1890,2735.635
1891,2717.284
1892,2695.371
1893,2718.45
1894,2744.678
1895,2713.132
1896,2657.69
1897,2655.105
1898,2694.915
1899,2701.24
1900,2660.739
1901,2632.945
1902,2643.535
1903,2654.31
1904,2641.025
1905,2630.275
1906,2646.517
1907,2675.406
1908,2695.867
1909,2702.373
1910,2695.245
1911,2676.562
1912,2649.797
1913,2625.192
1914,2617.895
1915,2633.129
1916,2664.772
1917,2695.624
1918,2692.141
1919,2645.427
1920,2605.243
1921,2610.394
1922,2637.626
1923,2653.217
1924,2633.954
1925,2568.405
1926,2505.759
1927,2512.847
1928,2570.177
1929,2610.105
1930,2619.836
1931,2630.941
1932,2645.876
1933,2633.773
1934,2595.504
1935,2582.35
1936,2618.05
1937,2661.023
1938,2675.553
1939,2665.3
1940,2641.895
1941,2621.182
1942,2617.397
1943,2630.312
1944,2653.365
1945,2668.882
1946,2656.236
1947,2617.112
1948,2567.468
1949,2536.532
1950,2561.425
1951,2623.036
1952,2646.42
1953,2614.05
1954,2586.296
1955,2591.112
1956,2593.189
1957,2575.716
1958,2574.987
1959,2609.136
1960,2626.121
1961,2587.041
1962,2544.964
1963,2555.12
1964,2584.745
1965,2585.308
1966,2569.183
1967,2567.087
1968,2574.601
1969,2572.121
1970,2554.548
1971,2525.857
1972,2497.051
1973,2483.742
1974,2494.28
1975,2529.845
1976,2574.129
1977,2593.16
1978,2579.994
1979,2563.3
1980,2559.313
1981,2561.421
1982,2559.631
1983,2541.381
1984,2508.166
1985,2493.071
1986,2515.353
1987,2546.567
1988,2557.668
1989,2542.379
1990,2505.253
1991,2474.682
1992,2475.091
1993,2488.32
1994,2491.7
1995,2500.759
1996,2535.911
1997,2571.277
1998,2568.41
1999,2524.958
2000,2455.755
2001,2387.39
2002,2351.002
2003,2364.399
2004,2431.684
2005,2486.86
2006,2431.015
2007,2321.535
2008,2315.921
2009,2391.535
2010,2390.271
2011,2310.71
2012,2286.335
2013,2345.672
2014,2413.814
2015,2447.391
2016,2440.922
2017,2408.226
2018,2382.517
2019,2381.51
2020,2402.421
2021,2432.021
2022,2445.182
2023,2424.013
2024,2362.648
2025,2293.496
2026,2303.066
2027,2388.226
2028,2399.519
2029,2298.93
2030,2252.804
2031,2330.303
2032,2399.822
2033,2377.53
2034,2301.775
2035,2231.166
2036,2237.561
2037,2329.136
2038,2389.846
2039,2358.367
2040,2307.899
2041,2292.69
2042,2298.119
2043,2309.334
2044,2327.39
2045,2349.342
2046,2360.381
2047,2350.483
2048,2322.305
2049,2284.075
2050,2252.125
2051,2241.787
2052,2264.125
2053,2297.026
2054,2255.357
2055,2131.073
2056,2076.265
2057,2149.659
2058,2204.018
2059,2163.133
2060,2117.863
2061,2125.229
2062,2154.087
2063,2183.488
2064,2223.298
2065,2263.225
2066,2257.736
2067,2202.112
2068,2155.754
2069,2136.893
2070,2100.154
2071,2040.639
2072,2011.706
2073,2041.881
2074,2123.24
2075,2205.66
2076,2198.312
2077,2116.154
2078,2081.902
2079,2125.875
2080,2186.674
2081,2220.987
2082,2206.915
2083,2162.5
2084,2132.799
2085,2111.303
2086,2060.734
2087,2015.594
2088,2043.355
2089,2084.234
2090,2027.474
2091,1939.906
2092,1954.51
2093,2041.072
2094,2104.641
2095,2091.594
2096,1988.782
2097,1912.549
2098,1970.969
2099,2047.646
2100,2015.217
2101,1939.444
2102,1904.711
2103,1910.846
2104,1937.587
2105,1955.618
2106,1951.577
2107,1950.696
2108,1954.141
2109,1909.539
2110,1819.884
2111,1781.472
2112,1814.581
2113,1833.34
2114,1835.851
2115,1912.305
2116,2032.161
2117,2061.034
2118,1981.363
2119,1864.594
2120,1784.353
2121,1798.755
2122,1839.112
2123,1800.158
2124,1732.572
2125,1723.542
2126,1744.112
2127,1752.582
2128,1792.13
2129,1879.813
2130,1898.732
2131,1801.629
2132,1752.39
2133,1817.689
2134,1844.012
2135,1768.901
2136,1684.459
2137,1646.516
2138,1658.816
2139,1704.738
2140,1752.673
2141,1769.663
2142,1730.931
2143,1683.028
2144,1690.938
2145,1724.053
2146,1728.791
2147,1702.254
2148,1657.393
2149,1614.381
2150,1585.102
2151,1559.623
2152,1540.715
2153,1556.265
2154,1598.587
2155,1614.906
2156,1588.237
2157,1538.054
2158,1497.804
2159,1501.872
2160,1523.037
2161,1514.734
2162,1489.549
2163,1473.27
2164,1464.057
2165,1463.11
2166,1496.586
2167,1553.9
2168,1551.313
2169,1489.332
2170,1482.803
2171,1523.705
2172,1495.221
2173,1426.373
2174,1422.226
2175,1425.012
2176,1342.619
2177,1275.938
2178,1328.527
2179,1425.06
2180,1487.613
2181,1508.996
2182,1492.308
2183,1443.182
2184,1383.099
2185,1345.836
2186,1327.079
2187,1299.544
2188,1257.129
2189,1207.4
2190,1176.451
2191,1180.309
2192,1190.57
2193,1193.646
2194,1216.922
2195,1230.651
2196,1140.745
2197,1033.802
2198,1108.197
2199,1226.503
2200,1150.083
2201,1049.058
2202,1120.307
2203,1210.943
2204,1182.727
2205,1068.404
2206,950.6165
2207,940.146
2208,998.1074
2209,983.1458
2210,925.7535
2211,917.856
2212,916.5963
2213,889.857
2214,955.0684
2215,1105.9
2216,1083.413
2217,901.4509
2218,869.8409
2219,977.2435
2220,1020.406
2221,1008.04
2222,1008.21
2223,989.7704
2224,943.5827
2225,952.6124
2226,989.6952
2227,891.1247
2228,757.636
2229,847.0134
2230,1030.957
2231,1070.969
2232,994.5689
2233,893.7472
2234,851.8446
2235,872.7357
2236,863.2681
2237,807.6383
2238,754.1492
2239,749.0518
2240,807.1396
2241,829.5563
2242,763.8833
2243,709.5532
2244,729.0495
2245,811.6597
2246,857.9135
2247,755.7785
2248,660.8155
2249,720.437
2250,747.652
2251,662.8734
2252,665.9147
2253,754.4783
2254,740.3867
2255,687.0311
2256,725.7177
2257,702.4164
2258,552.6297
2259,572.2239
2260,756.6035
2261,724.4439
2262,572.7282
2263,634.993
2264,750.2572
2265,704.0421
2266,597.1986
2267,542.0247
2268,584.6375
2269,657.4195
2270,636.5396
2271,561.1859
2272,508.0196
2273,473.5082
2274,473.8177
2275,568.7595
2276,670.371
2277,609.576
2278,480.7217
2279,437.5804
2280,483.0353
2281,557.9489
2282,560.4808
2283,500.5986
2284,462.7403
2285,433.792
2286,374.2358
2287,280.3476
2288,199.1856
2289,228.1913
2290,316.7648
2291,343.0236
2292,374.3051
2293,464.8641
2294,484.0861
2295,391.0171
2296,283.5889
2297,266.7493
2298,389.8363
2299,470.2914
2300,395.243
