400,57858.55
401,57728.89
402,58103.18
403,58824.11
404,59713.41
405,60584.84
406,61211.95
407,61357.44
408,60805.54
409,59646.46
410,58205.82
411,56812.75
412,55692.02
413,54867.63
414,54340.5
415,54119.13
416,54252.18
417,54801.5
418,55816.25
419,57128.7
420,58387.21
421,59236.73
422,59434.26
423,58970.27
424,57864.66
425,56226.29
426,54671.37
427,53992.77
428,54918.66
429,57043.21
430,58963.63
431,59254.91
432,57359.71
433,54566.54
434,52395.06
435,52070.75
436,53188.87
437,54774.89
438,55895.81
439,56284.94
440,56247.09
441,56103.18
442,56033.81
443,55935.68
444,55671.46
445,55159.95
446,54611.1
447,54328.81
448,54590.59
449,55284.05
450,55990.33
451,56287.21
452,56027.68
453,55563.76
454,55298.66
455,55505.12
456,55872.14
457,55925.25
458,55247.42
459,54113.16
460,53265.39
461,53440.92
462,54710.82
463,56128.44
464,56665.59
465,55686.73
466,53977.52
467,52644.07
468,52654.07
469,53716.07
470,54848.7
471,55090.71
472,54241.34
473,53024.27
474,52215.2
475,52302.05
476,52983.54
477,53824.7
478,54430.51
479,54663.04
480,54491.16
481,53891.88
482,52994.96
483,52069.55
484,51387.25
485,51031.71
486,50714.74
487,50105.61
488,49019.42
489,47939.24
490,47538.43
491,48402.86
492,50131.96
493,51689.29
494,52050.76
495,50969.64
496,49256.98
497,47795.59
498,47185.06
499,47190.19
500,47422.48
501,47540.29
502,47515.12
503,47450.88
504,47454.29
505,47685.66
506,48352.99
507,49661.59
508,51476.68
509,53037.03
510,53517.61
511,52390.18
512,50313.95
513,48244.54
514,47051.3
515,46833.86
516,47270.89
517,48041.04
518,48898.5
519,49680.85
520,50231.22
521,50477.06
522,50535.28
523,50548.2
524,50606.21
525,50548.27
526,50137.53
527,49174.8
528,47876.73
529,46722.04
530,46178.6
531,46270.1
532,46469.2
533,46217.8
534,45331.07
535,44548.41
536,44746.76
537,46492.05
538,48731.57
539,49887.55
540,48563.64
541,45448.29
542,42596.73
543,42031.09
544,44068.62
545,46885.11
546,48531.66
547,47946.64
548,46231.21
549,44806.45
550,44765.13
551,45575.09
552,46197.14
553,45720.94
554,44598.59
555,44119.94
556,45531.84
557,48600.27
558,51386.94
559,51875.34
560,49285.19
561,45510.34
562,42785.87
563,42730.68
564,44351.56
565,45959.58
566,46058.82
567,44792.79
568,43157.41
569,42119.46
570,41972.34
571,42366.64
572,42931.01
573,43468.84
574,44085.82
575,44917.32
576,45994.11
577,47005.46
578,47572.27
579,47400.09
580,46726.69
581,45998.42
582,45629.9
583,45629.11
584,45712.52
585,45598.56
586,45259.25
587,44987.27
588,45093.28
589,45612.12
590,45955.94
591,45454.16
592,43716.01
593,41520.59
594,39951.29
595,39937.01
596,41197.39
597,42869.47
598,44121.68
599,44655.94
600,44623.13
601,44187.68
602,43524.68
603,42825.14
604,42280.07
605,41990.17
606,41830.01
607,41639.69
608,41339.92
609,41216.69
610,41658.71
611,42963.34
612,44667.13
613,45925.55
614,45942.86
615,44755.66
616,43106.61
617,41749.66
618,41083.28
619,41005.76
620,41378.01
621,42038.24
622,42769.27
623,43346.92
624,43558.14
625,43232.5
626,42211.23
627,40432.7
628,38548.63
629,37527.52
630,38241.68
631,40250.83
632,42147.92
633,42547.51
634,41266.73
635,39551.2
636,38717.8
637,39387.18
638,40844.29
639,42225.77
640,42906.14
641,43012.32
642,42820.56
643,42563.95
644,42247.49
645,41799.27
646,41173.75
647,40572.41
648,40332
649,40763.95
650,41725.85
651,42682.11
652,43096.26
653,42836.1
654,42314.39
655,41979.25
656,42072.18
657,42398.52
658,42708.98
659,42787.48
660,42528.2
661,41849.19
662,40737.73
663,39565.02
664,38833.47
665,38970.41
666,39723.76
667,40473.7
668,40637.27
669,40261.59
670,39914.31
671,40159.66
672,40982.05
673,41645.71
674,41378.79
675,39988.64
676,38366.87
677,37519.71
678,38031.75
679,39281.34
680,40434.13
681,40804.75
682,40363.18
683,39263.28
684,37699.87
685,36163.35
686,35269.82
687,35566.09
688,36826.21
689,38329.91
690,39375.11
691,39725.92
692,39581.55
693,39156.39
694,38639.05
695,38183.78
696,37940.63
697,37929.53
698,37915.59
699,37635.57
700,36994.3
701,36380.82
702,36269.29
703,36973.27
704,38120.38
705,39155.07
706,39608.66
707,39558.93
708,39300.24
709,39106.69
710,39059.61
711,39130.31
712,39278
713,39286.18
714,38797.8
715,37475.24
716,35597.05
717,34128.14
718,34051.19
719,35532.94
720,37480.56
721,38701.75
722,38610.34
723,37922.02
724,37518.19
725,37956.19
726,38815.75
727,39493.57
728,39508.67
729,38898.77
730,37841.3
731,36544.32
732,35409.52
733,34910.63
734,35432.73
735,36592.55
736,37607.64
737,37756.33
738,37115.9
739,36325.23
740,36000.57
741,36110.55
742,36016.8
743,35080.84
744,33388.55
745,31924.87
746,31715.89
747,33056.44
748,35041.8
749,36661.99
750,37310.11
751,37253.91
752,36875.14
753,36438.25
754,35868.83
755,35031.44
756,33898.93
757,32867.14
758,32433.77
759,32952.42
760,34029.34
761,35028.06
762,35414.61
763,35361.32
764,35343.44
765,35779.6
766,36552.69
767,37247.91
768,37473.73
769,37167.12
770,36498.43
771,35646.63
772,34876.33
773,34528.92
774,34929.63
775,35901.55
776,36701.42
777,36572.59
778,35401.99
779,33984.45
780,33174.36
781,33349.36
782,34047.46
783,34723.96
784,35025.21
785,35016.99
786,34820.91
787,34557.51
788,34345.36
789,34302.17
790,34462.73
791,34573.85
792,34320.82
793,33520.49
794,32560.39
795,31982.1
796,32199.63
797,32941.7
798,33705.74
799,34059.91
800,34041.86
801,33884.59
802,33795.44
803,33765.71
804,33677.44
805,33418.88
806,32948.55
807,32267.87
808,31394.38
809,30560.46
810,30153.66
811,30530.38
812,31461.02
813,32214.18
814,32077.19
815,31080.85
816,30004.59
817,29640.7
818,30250.98
819,31472.51
820,32908.26
821,34172.62
822,34894.85
823,34713.87
824,33720.99
825,32729.21
826,32606.46
827,33598.73
828,34804.15
829,35203.63
830,34308.82
831,32761.8
832,31346.66
833,30584.91
834,30355.41
835,30440.33
836,30653.14
837,30894.13
838,31079.3
839,31146.98
840,31107.48
841,30985.67
842,30825.27
843,30740.65
844,30862.16
845,31230.8
846,31510.08
847,31264.9
848,30241.12
849,29046.78
850,28545.73
851,29379.41
852,31001.58
853,32468.8
854,32980.29
855,32582.41
856,31638.82
857,30510.7
858,29548.53
859,29097.4
860,29429.3
861,30272.69
862,31108.51
863,31470.76
864,31332.83
865,30887.53
866,30328.84
867,29853.86
868,29661.03
869,29914.32
870,30431.97
871,30829.93
872,30771.57
873,30466.98
874,30470.08
875,31267.57
876,32474.75
877,33121.33
878,32322.27
879,30438.04
880,28719.38
881,28346.99
882,29264.87
883,30481.43
884,31041.43
885,30868.98
886,30588.55
887,30797.75
888,31346.74
889,31462.22
890,30412.3
891,28512.49
892,26989.17
893,27029
894,28553.15
895,30340.34
896,31180.73
897,30841.24
898,29999.79
899,29346.09
900,29130.14
901,29180.17
902,29306.97
903,29296.05
904,28908.17
905,27924.98
906,26614.36
907,25730.61
908,26010.05
909,27327.82
910,28685.32
911,29079.68
912,28257.9
913,26735.05
914,25057.78
915,23737.93
916,23251.59
917,24041.6
918,25821.59
919,27553.68
920,28208.3
921,27702.48
922,26925.24
923,26777.61
924,27464.47
925,28481.77
926,29306.47
927,29673.95
928,29579.44
929,29035.85
930,28195.88
931,27350.55
932,26785.62
933,26567.45
934,26550.16
935,26583.77
936,26603.39
937,26624.53
938,26664.87
939,26725.07
940,26790.2
941,26847.74
942,26940.45
943,27159.9
944,27592.11
945,28201.69
946,28850.13
947,29397.77
948,29731.81
949,29761.43
950,29411.19
951,28825.46
952,28318.94
953,28185.83
954,28384.49
955,28626.11
956,28635.23
957,28370.95
958,27955.5
959,27512.32
960,27144.51
961,26941.82
962,26977.45
963,27150.76
964,27254.94
965,27116.18
966,26896.3
967,26948.04
968,27559.65
969,28428.67
970,28941.49
971,28595.53
972,27801.51
973,27413.45
974,28115.54
975,29338.01
976,29953.33
977,29042.87
978,27069.26
979,25055.23
980,23891.5
981,23690.62
982,24278.6
983,25443.33
984,26769.03
985,27773.47
986,28085.09
987,27852.92
988,27379.93
989,26934.39
990,26641.19
991,26587.11
992,26808.24
993,27151.66
994,27420.83
995,27471.87
996,27332.85
997,27067.06
998,26720.96
999,26292.77
1000,25772.17
1001,25187.54
1002,24665.54
1003,24347.51
1004,24319.31
1005,24544.06
1006,24968.49
1007,25519.84
1008,26034.61
1009,26323.56
1010,26268.03
1011,26030.94
1012,25845.26
1013,25869.21
1014,26003.44
1015,26093.23
1016,26039.77
1017,25909.85
1018,25800.62
1019,25771.14
1020,25783.78
1021,25785.98
1022,25743.21
1023,25659.93
1024,25545.97
1025,25434.83
1026,25403.84
1027,25533.13
1028,25797.83
1029,26008.74
1030,25967.12
1031,25650.15
1032,25267.4
1033,25036.5
1034,24968.76
1035,24846.05
1036,24453.43
1037,23872.58
1038,23460.79
1039,23557.26
1040,24083.61
1041,24639.2
1042,24857.67
1043,24849.07
1044,25026.02
1045,25737.01
1046,26732.36
1047,27453.16
1048,27426.62
1049,26776.23
1050,25873.51
1051,25063.81
1052,24553.92
1053,24504.55
1054,24992.93
1055,25753.1
1056,26431.28
1057,26788.1
1058,26948.18
1059,27107.89
1060,27320.72
1061,27287
1062,26657.13
1063,25442.04
1064,24344.97
1065,24133.33
1066,24871.91
1067,25575.67
1068,25208.38
1069,23742.91
1070,22324.94
1071,22106.2
1072,23128.94
1073,24435.99
1074,25096.07
1075,24946.38
1076,24356.12
1077,23684.03
1078,23106.02
1079,22701.83
1080,22548.31
1081,22710.56
1082,23248.9
1083,24125.92
1084,24856.43
1085,24827.94
1086,23760.08
1087,22464.83
1088,21975.79
1089,22835.85
1090,24422.76
1091,25948.76
1092,26871.32
1093,27071.67
1094,26480.61
1095,25294.26
1096,24045.14
1097,23266.82
1098,23092.99
1099,23286.48
1100,23603.53
1101,23888.17
1102,24043.53
1103,23992.46
1104,23805.76
1105,23625.23
1106,23569.41
1107,23630.28
1108,23757.46
1109,23899.43
1110,24000.3
1111,24003.33
1112,23864.5
1113,23571.33
1114,23117.43
1115,22596.19
1116,22271.63
1117,22416.03
1118,23039.15
1119,23838.67
1120,24503.62
1121,24877.25
1122,24930.47
1123,24654.62
1124,24204.31
1125,23826.87
1126,23744.05
1127,24014.8
1128,24636.11
1129,25519.61
1130,26239.63
1131,26288.22
1132,25466.3
1133,24363.06
1134,23686.12
1135,23762.57
1136,24280.79
1137,24871.67
1138,25260.27
1139,25276.97
1140,24783.02
1141,23997.56
1142,23406.25
1143,23439.07
1144,24025.3
1145,24850.91
1146,25580.02
1147,25776.08
1148,24972.17
1149,23069.97
1150,21083.8
1151,20229.93
1152,21004.23
1153,22542.01
1154,23844.39
1155,24456.06
1156,24577.66
1157,24445.02
1158,24234.95
1159,24078.63
1160,24087.18
1161,24219.04
1162,24358.45
1163,24393.89
1164,24236.03
1165,23802.2
1166,23140.09
1167,22659.15
1168,22826.14
1169,23746.95
1170,24921.14
1171,25802.64
1172,26146.6
1173,26020.97
1174,25512.75
1175,24761.43
1176,23939.99
1177,23211.67
1178,22676.39
1179,22409.98
1180,22442.77
1181,22647.16
1182,22861.79
1183,22997.07
1184,23107.14
1185,23262.33
1186,23501.29
1187,23824.97
1188,24231
1189,24701.87
1190,25209.36
1191,25697.05
1192,25920.06
1193,25555.64
1194,24463.99
1195,23174.88
1196,22368.71
1197,22396.96
1198,22943.58
1199,23614.41
1200,24100.52
1201,24192.68
1202,23725.07
1203,23001.19
1204,22642.03
1205,23143.13
1206,24195.18
1207,25184.58
1208,25629.54
1209,25473.95
1210,24749.39
1211,23688.49
1212,22874.74
1213,22898.2
1214,23705.9
1215,24613.95
1216,24978.22
1217,24778.17
1218,24334.25
1219,23940.45
1220,23751.58
1221,23881.88
1222,24358.03
1223,24997.82
1224,25588.81
1225,25932.29
1226,25847.32
1227,25180.9
1228,24133.26
1229,23153.16
1230,22635.61
1231,22621.02
1232,23018.37
1233,23708.44
1234,24489.42
1235,25145.22
1236,25520.89
1237,25554.94
1238,25202.35
1239,24558.81
1240,23834.7
1241,23237.75
1242,22932.83
1243,23066.81
1244,23674.91
1245,24424.61
1246,24910.3
1247,24930.1
1248,24616.94
1249,24134.43
1250,23635.39
1251,23263.51
1252,23147.96
1253,23315.73
1254,23749.65
1255,24343.88
1256,24702.57
1257,24377.72
1258,23420.68
1259,22679.7
1260,23007.64
1261,24166.43
1262,25035.51
1263,24688.61
1264,23626.4
1265,22917.32
1266,23239.27
1267,24122.23
1268,24894.36
1269,25227.5
1270,25275.12
1271,25218.9
1272,25138.08
1273,25040.87
1274,24902.53
1275,24533.15
1276,23689.82
1277,22458.65
1278,21695.85
1279,22331.08
1280,24224.37
1281,26042.29
1282,26523.38
1283,25652.01
1284,24079.61
1285,22475.55
1286,21550.09
1287,22015.21
1288,23866.06
1289,25875.9
1290,26761.74
1291,26281.7
1292,25032.54
1293,23614.4
1294,22500.29
1295,22116.67
1296,22672.33
1297,23830.5
1298,25168.56
1299,26227.49
1300,26506.98
1301,25629.13
1302,24324.82
1303,23904.43
1304,25091.75
1305,26517.45
1306,26373.59
1307,24316.04
1308,22227.18
1309,22015.29
1310,23498.73
1311,25054.7
1312,25396.53
1313,24967.81
1314,24718.14
1315,25107.61
1316,25647.43
1317,25769.33
1318,25434.27
1319,25056.38
1320,24994.02
1321,25184.27
1322,25409.73
1323,25521.11
1324,25529.6
1325,25470.29
1326,25401.35
1327,25404.08
1328,25533.44
1329,25651.69
1330,25538.47
1331,25093
1332,24535.56
1333,24134.22
1334,23992.4
1335,24030.04
1336,24161.19
1337,24330.35
1338,24496.21
1339,24626.31
1340,24713.63
1341,24757
1342,24795.57
1343,24915.66
1344,25191.03
1345,25570.44
1346,25942
1347,26204.84
1348,26292.21
1349,26147.37
1350,25836.41
1351,25568.17
1352,25513.61
1353,25479.35
1354,25099.92
1355,24266.5
1356,23588.35
1357,23773.1
1358,24792.54
1359,25813.63
1360,26073.19
1361,25610.82
1362,24814.3
1363,24027.96
1364,23482.18
1365,23384.59
1366,23812.92
1367,24718.46
1368,25988.14
1369,27152.54
1370,27610.39
1371,27213.84
1372,26777.28
1373,27170.01
1374,28109.09
1375,28366.07
1376,27081.97
1377,25336.42
1378,24784.6
1379,25967.3
1380,27524.03
1381,28027.88
1382,27499.88
1383,26906.04
1384,26978
1385,27523.05
1386,28136.87
1387,28433.18
1388,28049.78
1389,26749.56
1390,25306.83
1391,24988.85
1392,26351.31
1393,28076.44
1394,28606.46
1395,27774.38
1396,26733.29
1397,26482.92
1398,26892.04
1399,27448.3
1400,27758.93
1401,27647.22
1402,26996.71
1403,26141.99
1404,25712.41
1405,26115.99
1406,26973.18
1407,27738.08
1408,28029.26
1409,27659.94
1410,26537.75
1411,25138.3
1412,24173.38
1413,24104.45
1414,24858.73
1415,26271.97
1416,27852.57
1417,28865.01
1418,28831.3
1419,28299.49
1420,28052.73
1421,28325.21
1422,28655.79
1423,28581.07
1424,27949.47
1425,26745.24
1426,25137.25
1427,23686.4
1428,22979.82
1429,23245.68
1430,24451.74
1431,26381.1
1432,28167.86
1433,28827.17
1434,28348.45
1435,27855.35
1436,28308.94
1437,29245.88
1438,29661.29
1439,29098.19
1440,28108.54
1441,27325.91
1442,27079.88
1443,27515.66
1444,28567.5
1445,29567.62
1446,29778.2
1447,29266.57
1448,28841.3
1449,29112.04
1450,29647.43
1451,29730.97
1452,29174.67
1453,28507.31
1454,28219.4
1455,28157.82
1456,27894.14
1457,27360.47
1458,27200.84
1459,28055.89
1460,29583.32
1461,30827.51
1462,31134.18
1463,30736.32
1464,30021.8
1465,29339.55
1466,29004.93
1467,29253
1468,29994.2
1469,31047.83
1470,31967.61
1471,31995.97
1472,30612.7
1473,28753.96
1474,27854.59
1475,28338.05
1476,29054.72
1477,28898.17
1478,28187.27
1479,27907.8
1480,28502.3
1481,29304.81
1482,29596.9
1483,29550.19
1484,29874.97
1485,30852.9
1486,31634.53
1487,31267.79
1488,29978.94
1489,28885.39
1490,28776.53
1491,29293.26
1492,29852.81
1493,30093.02
1494,29854.14
1495,29121.54
1496,28432.55
1497,28440.59
1498,29147.86
1499,29847.82
1500,29964.47
1501,29730.89
1502,29618.91
1503,29921.68
1504,30706.85
1505,31923.01
1506,32931.53
1507,32900.77
1508,31681.64
1509,30097.86
1510,28987.08
1511,28779.22
1512,29735.48
1513,31527.03
1514,32898.15
1515,32749.74
1516,31703.01
1517,31114.15
1518,31448.08
1519,31649.54
1520,30720.2
1521,29255.07
1522,28579.94
1523,29280.48
1524,30608.58
1525,31702.39
1526,31924.02
1527,30750.4
1528,28546.13
1529,27304.6
1530,28817.55
1531,31738.88
1532,33200.12
1533,32041.92
1534,30279.71
1535,30032.86
1536,31435.03
1537,33657.57
1538,35783.52
1539,36752.45
1540,35709.81
1541,33543.83
1542,31950.12
1543,31809.45
1544,32589.21
1545,33635.9
1546,34445.32
1547,34584.44
1548,34089.39
1549,33747.54
1550,34259.57
1551,35296.84
1552,36120.17
1553,36254.84
1554,35614.57
1555,34268.21
1556,33003.67
1557,32843.09
1558,33779.43
1559,34471.61
1560,33907.32
1561,33172.97
1562,33947.8
1563,36093.78
1564,37427.18
1565,36332.48
1566,34051.13
1567,32527.01
1568,32665.67
1569,34380.89
1570,37191.4
1571,39407.46
1572,39222.71
1573,37141.07
1574,35494.83
1575,35628.89
1576,36042.07
1577,34949.48
1578,32896.45
1579,31912.38
1580,32976.94
1581,34761.35
1582,35822.04
1583,36298.78
1584,37113.27
1585,38439.79
1586,39204.54
1587,38515.44
1588,37331.11
1589,37267.79
1590,38274.21
1591,38199.85
1592,35593
1593,32693.51
1594,32604.63
1595,35114.51
1596,36903.67
1597,35881.89
1598,34174.15
1599,34491.2
1600,36557.4
1601,38069.48
1602,37807.84
1603,36990.91
1604,36964.75
1605,37522.79
1606,37729.71
1607,37358.81
1608,37253.07
1609,38051.7
1610,38885.54
1611,38458.12
1612,36883.13
1613,35721.94
1614,36144.59
1615,37803.71
1616,40009.61
1617,41701.6
1618,41569.32
1619,39456.55
1620,37631.29
1621,38244.41
1622,40329.32
1623,41577.72
1624,41187.41
1625,40375.16
1626,40153.77
1627,40045.48
1628,39234.51
1629,37982.63
1630,37458.09
1631,38249.93
1632,39411.85
1633,39901.81
1634,39944.24
1635,40401.77
1636,41398.76
1637,41945.28
1638,41292.16
1639,40274.11
1640,40132.05
1641,40893.89
1642,41507.46
1643,41215.66
1644,40131.57
1645,38561.68
1646,37275.06
1647,37264.32
1648,38717.49
1649,40652.55
1650,42057.07
1651,42207.72
1652,40557.23
1653,38169.36
1654,37414.48
1655,39367.97
1656,42062.03
1657,43378.87
1658,43207.5
1659,42304.55
1660,41107.37
1661,39661.42
1662,38256.09
1663,38102.97
1664,40386.53
1665,43632.21
1666,44687.82
1667,42652.83
1668,40553.14
1669,41021.5
1670,42686.73
1671,43040
1672,41979.07
1673,41506.9
1674,42696.86
1675,44268.02
1676,44795.39
1677,44241.26
1678,43161.38
1679,42098.56
1680,41577.85
1681,41831.8
1682,42199.06
1683,41942.72
1684,41228.56
1685,40706.49
1686,40736.68
1687,41267.57
1688,42170.01
1689,43137.92
1690,43855.3
1691,44393.68
1692,45069.25
1693,45759.91
1694,45622.88
1695,44151.2
1696,42624.95
1697,42682.5
1698,44018.75
1699,44918.18
1700,44580.69
1701,43924.45
1702,43832.36
1703,44120.39
1704,44309.54
1705,44378.92
1706,44662.98
1707,45230.48
1708,45626.04
1709,45478.04
1710,45141.73
1711,45165.22
1712,45510.68
1713,45678.72
1714,45461.33
1715,45228.52
1716,45311.74
1717,45528.56
1718,45557.38
1719,45366.7
1720,45144.96
1721,44974.17
1722,44735.4
1723,44368.4
1724,44173.64
1725,44510.09
1726,45159.78
1727,45508.23
1728,45291.99
1729,44824.37
1730,44412.95
1731,44134.95
1732,44010.78
1733,44053.56
1734,44270.85
1735,44617.21
1736,44975.2
1737,45260.18
1738,45510.62
1739,45784
1740,46090.58
1741,46413.96
1742,46643.09
1743,46563.37
1744,46143.27
1745,45820.84
1746,46004.96
1747,46478.99
1748,46804.2
1749,46788.2
1750,46449.29
1751,45976.87
1752,45863.47
1753,46436.54
1754,47165.55
1755,47356.81
1756,47077.3
1757,46854.87
1758,46912.35
1759,47061.92
1760,47123.98
1761,47025.06
1762,46742.6
1763,46472.09
1764,46484.64
1765,46742.16
1766,46930.33
1767,46857.61
1768,46582.37
1769,46246.59
1770,46224.85
1771,46864.55
1772,47621.81
1773,47470.88
1774,46420.68
1775,45710.82
1776,46048.95
1777,46649.66
1778,46696.9
1779,46459.44
1780,46531.27
1781,46899.32
1782,47122.63
1783,47040.77
1784,46907.87
1785,46865.41
1786,46626.85
1787,45947.2
1788,45364.42
1789,45666.3
1790,46618.93
1791,47175.91
1792,46942.39
1793,46587.86
1794,46657.21
1795,46990.28
1796,47311.93
1797,47530.14
1798,47626.51
1799,47530.84
1800,47133.84
1801,46573.71
1802,46381.75
1803,46878.25
1804,47608.03
1805,48039.92
1806,48151.39
1807,48116.71
1808,47995.5
1809,47760.44
1810,47496.57
1811,47454.5
1812,47745.59
1813,48057.18
1814,48079.94
1815,47937.84
1816,47882.32
1817,47882.54
1818,47728.03
1819,47454.36
1820,47397.89
1821,47703.67
1822,48048.13
1823,48139.21
1824,48099.06
1825,48135.74
1826,48230.38
1827,48254.11
1828,48206.68
1829,48206.81
1830,48309.38
1831,48456.66
1832,48580.06
1833,48610.66
1834,48496.96
1835,48289.44
1836,48061.13
1837,47724
1838,47100.18
1839,46403.59
1840,46284.22
1841,46975.07
1842,47851.95
1843,48340.95
1844,48396.82
1845,48112.26
1846,47725.45
1847,47519.86
1848,47602.09
1849,47950.75
1850,48385.34
1851,48544.06
1852,48329.66
1853,48191.46
1854,48448.62
1855,48741.54
1856,48661.96
1857,48421.18
1858,48429.97
1859,48638.91
1860,48709.76
1861,48584.92
1862,48509.46
1863,48535.79
1864,48353.47
1865,47820.41
1866,47395.76
1867,47513.71
1868,47921.57
1869,48189.47
1870,48243.74
1871,48196.47
1872,48137.6
1873,48135.61
1874,48199.19
1875,48258.24
1876,48293.7
1877,48407.39
1878,48643.55
1879,48790.21
1880,48637.93
1881,48322.73
1882,48085.8
1883,47966.88
1884,47892.73
1885,47850.79
1886,47882.11
1887,47949.93
1888,47909.14
1889,47723.41
1890,47602.53
1891,47705.63
1892,47918.14
1893,48084.42
1894,48134.57
1895,48044.83
1896,47946.7
1897,48035.16
1898,48258.4
1899,48379
1900,48312.45
1901,48154.52
1902,48011.63
1903,47991.13
1904,48132.93
1905,48306.05
1906,48372.54
1907,48271.38
1908,47996.26
1909,47754.7
1910,47792.39
1911,47981.07
1912,48012.18
1913,47908.45
1914,47942.64
1915,48124.79
1916,48169.48
1917,47982.09
1918,47792.21
1919,47754.83
1920,47792.6
1921,47811.96
1922,47770.25
1923,47656.3
1924,47559.74
1925,47584.64
1926,47725.32
1927,47921.14
1928,48025.63
1929,47862.63
1930,47609.38
1931,47713.41
1932,48074.14
1933,47981.8
1934,47309.55
1935,46857.39
1936,47054.21
1937,47406.05
1938,47484.18
1939,47365.86
1940,47204.46
1941,47105.14
1942,47131.68
1943,47187.19
1944,47153.5
1945,47156.29
1946,47390.31
1947,47614.6
1948,47369.37
1949,46857.36
1950,46774.09
1951,47129.29
1952,47235.64
1953,46901.3
1954,46619.87
1955,46659
1956,46828.68
1957,46972.75
1958,47103.34
1959,47199.94
1960,47089.98
1961,46685.23
1962,46299.01
1963,46238.99
1964,46356.42
1965,46407.43
1966,46383.01
1967,46349.77
1968,46278.59
1969,46108.99
1970,45922.8
1971,45870.04
1972,45889.8
1973,45781.91
1974,45597.74
1975,45603.29
1976,45817.45
1977,45991.07
1978,45994.23
1979,45867.2
1980,45669.48
1981,45472.91
1982,45348.44
1983,45362.46
1984,45482.86
1985,45461.48
1986,45197.89
1987,45057.88
1988,45296.99
1989,45583.9
1990,45598.77
1991,45497.91
1992,45485.88
1993,45486.27
1994,45384.73
1995,45275.41
1996,45283.93
1997,45311.78
1998,45205.85
1999,45031.14
2000,44931.03
2001,44905.74
2002,44889.73
2003,44875.57
2004,44886.27
2005,44915.11
2006,44930.86
2007,44833.22
2008,44494.72
2009,44126.41
2010,44177.63
2011,44555.82
2012,44708.75
2013,44483.34
2014,44123.64
2015,43887.72
2016,44018.57
2017,44379.1
2018,44416.68
2019,44050.17
2020,43792.77
2021,43801.35
2022,43723.64
2023,43457.57
2024,43296.33
2025,43336.22
2026,43339.09
2027,43218.27
2028,43166.06
2029,43230.01
2030,43179.86
2031,42949.32
2032,42799.16
2033,42850.94
2034,42917.83
2035,42898.4
2036,42909.27
2037,42992.09
2038,42999.97
2039,42821.25
2040,42456.13
2041,42031.87
2042,41900.18
2043,42143.77
2044,42252.2
2045,41977.62
2046,41746.95
2047,41801.69
2048,41843.96
2049,41695.72
2050,41550.64
2051,41522.23
2052,41476.52
2053,41322.29
2054,41109.39
2055,40907.37
2056,40791.77
2057,40799.72
2058,40894.96
2059,40987.01
2060,40904.43
2061,40604.3
2062,40279.71
2063,40109.7
2064,40207.57
2065,40463.06
2066,40431.64
2067,39996.34
2068,39565.59
2069,39393.58
2070,39456.61
2071,39599.88
2072,39532.82
2073,39251.73
2074,39103.4
2075,39164.93
2076,39191.7
2077,39080.98
2078,38897.21
2079,38745.11
2080,38746.74
2081,38779.01
2082,38535.4
2083,38173.82
2084,38177.92
2085,38437.36
2086,38458.04
2087,38244.66
2088,38093.89
2089,38009.22
2090,37853.79
2091,37721.98
2092,37768.59
2093,37749.19
2094,37348.43
2095,36886
2096,36796.01
2097,36851.44
2098,36707.07
2099,36450.35
2100,36244.76
2101,36088.5
2102,35966.45
2103,35943.32
2104,36029.6
2105,36050.8
2106,35915.68
2107,35784.28
2108,35669.25
2109,35252.57
2110,34605.07
2111,34442.18
2112,34836.64
2113,34974.82
2114,34617.39
2115,34198.37
2116,33926.61
2117,33778.87
2118,33722.21
2119,33719.74
2120,33706.09
2121,33611.03
2122,33462.98
2123,33317.9
2124,33103.99
2125,32778.76
2126,32681.87
2127,33044.14
2128,33248.57
2129,32836.41
2130,32392.78
2131,32338.56
2132,32296.96
2133,32034.95
2134,31762.89
2135,31578.27
2136,31365.63
2137,31117.22
2138,30951.9
2139,30899.4
2140,30900.12
2141,30779.67
2142,30356.03
2143,29969.38
2144,30065.87
2145,30219.89
2146,29897.54
2147,29458.38
2148,29330.32
2149,29413.14
2150,29455.49
2151,29101.12
2152,28405.38
2153,28116.09
2154,28362.26
2155,28454.46
2156,28247.01
2157,28109.58
2158,28063.09
2159,27912.12
2160,27712.44
2161,27601.55
2162,27481.88
2163,27230.33
2164,26936.64
2165,26669.1
2166,26307.1
2167,25889.36
2168,25793.67
2169,25947.44
2170,25677.47
2171,25033.91
2172,24718.29
2173,24754.07
2174,24742.61
2175,24559.49
2176,24250.78
2177,24073.86
2178,24170.91
2179,24113.07
2180,23690.03
2181,23393.94
2182,23444.8
2183,23543.16
2184,23467
2185,23132.31
2186,22722.62
2187,22537.15
2188,22437.99
2189,22180.99
2190,21932.15
2191,21864.55
2192,21830.88
2193,21716.6
2194,21576.57
2195,21475.13
2196,21455.86
2197,21407.12
2198,21132.02
2199,20784.09
2200,20625.33
2201,20508.35
2202,20242.7
2203,19935.83
2204,19712.61
2205,19610.26
2206,19569.35
2207,19432.38
2208,19219.6
2209,19078.3
2210,18969.23
2211,18786.92
2212,18576.12
2213,18377.73
2214,18089.42
2215,17734.67
2216,17590.01
2217,17631.51
2218,17514.79
2219,17284.45
2220,17198.16
2221,17139.31
2222,16937.4
2223,16780.81
2224,16739.13
2225,16463.43
2226,15921.99
2227,15528.56
2228,15335.6
2229,15121.41
2230,14843.69
2231,14555.57
2232,14356.11
2233,14263.01
2234,14091.48
2235,13910.68
2236,14110.82
2237,14393.87
2238,14074.84
2239,13608.24
2240,13646.6
2241,13668.16
2242,13285
2243,12963.35
2244,12913.43
2245,12922.97
2246,12845.96
2247,12645.45
2248,12572.42
2249,12734.22
2250,12468.15
2251,11683.29
2252,11449.93
2253,11833.25
2254,11940.06
2255,11654.73
2256,11243
2257,10794.9
2258,10391.09
2259,10194.12
2260,10240.41
2261,10400.5
2262,10524.69
2263,10500.96
2264,10460.95
2265,10477.92
2266,10250.16
2267,9781.952
2268,9553.799
2269,9430.249
2270,8919.305
2271,8378.909
2272,8282.399
2273,8438.233
2274,8577.347
2275,8517.658
2276,8294.769
2277,8098.935
2278,8030.868
2279,8067.939
2280,7929.094
2281,7547.764
2282,7237.353
2283,6986.907
2284,6592.552
2285,6380.898
2286,6594.447
2287,6651.011
2288,6375.548
2289,6322.221
2290,6489.453
2291,6511.617
2292,6365.042
2293,6099.857
2294,5670.032
2295,5337.69
2296,5634.453
2297,5990.206
2298,5585.089
2299,5271.423
2300,5553.775
