400,81237.94
401,81051.27
402,81218.45
403,81623.18
404,82133.08
405,82615.81
406,82936.99
407,82962.11
408,82569.13
409,81813.45
410,80886.98
411,79983.68
412,79240.45
413,78684.48
414,78330.38
415,78191.51
416,78275.58
417,78588.38
418,79129.91
419,79800.23
420,80414.69
421,80787.13
422,80793.43
423,80438.54
424,79743.62
425,78775.8
426,77864.44
427,77430.17
428,77859.17
429,78933.59
430,79904.46
431,80011.03
432,78951.58
433,77400.88
434,76156.08
435,75862.73
436,76326.7
437,77060.35
438,77596.16
439,77787.92
440,77765.15
441,77665.26
442,77567.83
443,77435.49
444,77216.85
445,76885.33
446,76543.41
447,76335.2
448,76392.1
449,76657.69
450,76927.94
451,76997.23
452,76798.3
453,76514.75
454,76355.87
455,76459.23
456,76641.5
457,76629.42
458,76182.91
459,75460.45
460,74890.52
461,74898.23
462,75532.23
463,76265.69
464,76525.66
465,75956.57
466,74989.62
467,74233.41
468,74219.93
469,74783.73
470,75377.3
471,75464.33
472,74930.66
473,74175.48
474,73626.77
475,73558.17
476,73819.9
477,74190.45
478,74466.4
479,74560.55
480,74433.98
481,74053.16
482,73484.86
483,72887.39
484,72420.86
485,72138.54
486,71882.31
487,71469.82
488,70799.8
489,70142.47
490,69873.84
491,70320.7
492,71254.84
493,72090.31
494,72248.13
495,71590.34
496,70578.89
497,69716.46
498,69340.28
499,69299.84
500,69355.09
501,69298.1
502,69136.34
503,68968.23
504,68891.69
505,68997.09
506,69368.11
507,70086.07
508,71057.37
509,71866.16
510,72063.87
511,71365.86
512,70143.6
513,68932.27
514,68218.3
515,68052.69
516,68248.3
517,68618.38
518,69026.6
519,69392.48
520,69639.02
521,69730.78
522,69725.74
523,69694.39
524,69680.17
525,69595.56
526,69313.54
527,68727.13
528,67950.5
529,67237.16
530,66835.08
531,66763.52
532,66758.08
533,66538.43
534,66016.67
535,65581.36
536,65691.88
537,66638.38
538,67829.55
539,68388.25
540,67539.62
541,65684.69
542,63995.44
543,63624.7
544,64749.13
545,66319.29
546,67214.37
547,66823.7
548,65780.23
549,64900.8
550,64815.17
551,65226.92
552,65550.7
553,65272.98
554,64639.96
555,64364.95
556,65137.35
557,66821.02
558,68329.89
559,68534.29
560,66999.99
561,64797.11
562,63187.7
563,63085.57
564,63928.52
565,64761.11
566,64737.49
567,63942.46
568,62944.67
569,62296.03
570,62162.42
571,62341.26
572,62617.38
573,62877.83
574,63186.53
575,63624.68
576,64209.96
577,64752.61
578,65021.29
579,64837.55
580,64355.25
581,63858.57
582,63610.71
583,63606.17
584,63646.82
585,63536.1
586,63252.45
587,62995.6
588,62977.75
589,63236.63
590,63415.97
591,63107.11
592,62067.07
593,60745.41
594,59771.87
595,59687.14
596,60335.16
597,61224.23
598,61880.38
599,62132.9
600,62066.21
601,61772.45
602,61351.09
603,60912.38
604,60566.73
605,60370.36
606,60243.63
607,60086.27
608,59847.93
609,59704.36
610,59894.94
611,60604.13
612,61559.5
613,62259.79
614,62232.6
615,61499.32
616,60500.22
617,59682.09
618,59275.29
619,59205.53
620,59375.86
621,59683.8
622,60012.82
623,60244.9
624,60268.84
625,59999.77
626,59360.02
627,58323.77
628,57246.76
629,56654.13
630,57018.08
631,58088.52
632,59083.39
633,59232.9
634,58442.05
635,57417.34
636,56905.13
637,57254.31
638,58051.1
639,58797.07
640,59132.76
641,59138.25
642,58980.88
643,58800.61
644,58592.69
645,58303.64
646,57896.47
647,57488.86
648,57283.14
649,57466.93
650,57963.59
651,58467.48
652,58672.21
653,58497.17
654,58166.13
655,57922.66
656,57902.61
657,58014.41
658,58137.92
659,58162.77
660,58010.14
661,57608.28
662,56930.16
663,56196.35
664,55712.14
665,55738.12
666,56131.3
667,56530.11
668,56594.18
669,56344.45
670,56100.5
671,56180.25
672,56581.08
673,56902.09
674,56722.39
675,55932.69
676,55007.13
677,54481.56
678,54671.28
679,55260.79
680,55823.27
681,56003.43
682,55760.04
683,55140.03
684,54219.85
685,53286.88
686,52718.3
687,52849.26
688,53544.9
689,54369.76
690,54900
691,55007.62
692,54840.55
693,54555.63
694,54263.38
695,54012.08
696,53845.02
697,53757.02
698,53648.05
699,53407.54
700,53005.48
701,52643.97
702,52565.89
703,52928.15
704,53520.43
705,54034.38
706,54210.72
707,54099.09
708,53871.54
709,53688.59
710,53601.36
711,53598.49
712,53661.36
713,53665.12
714,53400.03
715,52667.11
716,51613.03
717,50769.43
718,50678.16
719,51433.52
720,52438.84
721,53042.91
722,52924.56
723,52471.45
724,52161.52
725,52301.05
726,52678.71
727,52986.18
728,52975.93
729,52658.05
730,52112.09
731,51433.13
732,50814.65
733,50486.75
734,50637.92
735,51096.58
736,51504.01
737,51529.46
738,51210.02
739,50841.34
740,50707.49
741,50769.87
742,50687.45
743,50120.21
744,49121.78
745,48234.38
746,48022.59
747,48654.64
748,49648.56
749,50465.31
750,50781.31
751,50740.55
752,50547.94
753,50341.57
754,50066.4
755,49632.63
756,49011.49
757,48412.26
758,48101.64
759,48272.25
760,48732.73
761,49167.04
762,49308.17
763,49226.69
764,49138
765,49233.3
766,49474.67
767,49696.83
768,49743.42
769,49585.09
770,49282.77
771,48901
772,48542.48
773,48344.18
774,48436.75
775,48751.93
776,48997.07
777,48874.17
778,48339.21
779,47706.43
780,47313.62
781,47313.76
782,47534.5
783,47771.32
784,47886.24
785,47887.24
786,47801.77
787,47663.77
788,47525.35
789,47441.53
790,47432.82
791,47400.13
792,47218.67
793,46817.79
794,46361.3
795,46076.31
796,46135.53
797,46419.5
798,46710.09
799,46819.35
800,46759.1
801,46624.36
802,46500.79
803,46395.34
804,46275.13
805,46107.88
806,45869.48
807,45540.86
808,45111.18
809,44681.99
810,44435.96
811,44541.43
812,44893.75
813,45154.5
814,44994.22
815,44435.77
816,43856.81
817,43640.67
818,43906.56
819,44462.63
820,45100.46
821,45632.34
822,45898.61
823,45745.48
824,45223.4
825,44708.66
826,44602.24
827,45017
828,45534.14
829,45680.57
830,45231.59
831,44491.56
832,43831.27
833,43491.5
834,43394.72
835,43415.56
836,43453.02
837,43474.02
838,43457.63
839,43391.76
840,43293.07
841,43183.93
842,43088.28
843,43036.09
844,43058.58
845,43156.68
846,43203.03
847,43036.79
848,42567.32
849,42038.68
850,41794.19
851,42088.88
852,42706.4
853,43272.73
854,43469.03
855,43303.43
856,42906.67
857,42411.37
858,41965.41
859,41722.61
860,41805.64
861,42105.89
862,42409.43
863,42523.57
864,42432.1
865,42206.95
866,41921.61
867,41661.31
868,41517.45
869,41566.55
870,41735.46
871,41863.45
872,41809.25
873,41656.54
874,41630.51
875,41928.34
876,42384.87
877,42591.41
878,42176.05
879,41302.76
880,40518.49
881,40338.94
882,40731.63
883,41249.38
884,41461.8
885,41338.3
886,41166.66
887,41222.46
888,41441.57
889,41476.47
890,40997.7
891,40137.08
892,39427.71
893,39385.87
894,39983.92
895,40703.11
896,41029.25
897,40860.63
898,40480.25
899,40176.21
900,40052.39
901,40035.97
902,40047.11
903,40001.5
904,39810.47
905,39393.68
906,38860.25
907,38508.73
908,38630.11
909,39165.62
910,39701.75
911,39823.69
912,39431.23
913,38746.41
914,38004.25
915,37418.8
916,37182.54
917,37474
918,38172.25
919,38847.74
920,39074.3
921,38814.27
922,38428.88
923,38284.62
924,38470.18
925,38791.28
926,39045.94
927,39132.45
928,39049.98
929,38804.43
930,38453.44
931,38105.87
932,37868.47
933,37763.46
934,37731.33
935,37711.05
936,37676.19
937,37632.98
938,37588.75
939,37547.73
940,37511.37
941,37481.94
942,37479.88
943,37541.6
944,37700.93
945,37938.36
946,38189.07
947,38388.12
948,38489
949,38460.16
950,38276.53
951,38002.93
952,37773.82
953,37714.39
954,37800.55
955,37898.32
956,37880.29
957,37731.49
958,37515.13
959,37294.04
960,37110.19
961,36991.84
962,36961.25
963,36978.73
964,36966.84
965,36861.51
966,36734.54
967,36735
968,36984.1
969,37348.54
970,37560.92
971,37400.86
972,37034.54
973,36815.81
974,37030.55
975,37462.48
976,37671.96
977,37299.43
978,36515.2
979,35704.43
980,35204.51
981,35071.3
982,35256.95
983,35694.81
984,36217.89
985,36626.34
986,36763.7
987,36677.22
988,36474.43
989,36253.48
990,36074.1
991,35985.7
992,36014.67
993,36101.66
994,36167.51
995,36152.25
996,36058.63
997,35902.27
998,35699.14
999,35466.28
1000,35220.91
1001,34984.09
1002,34786.7
1003,34661.04
1004,34627.59
1005,34680.8
1006,34811.62
1007,35001.27
1008,35185.87
1009,35288.68
1010,35260.06
1011,35158.36
1012,35068.84
1013,35049.73
1014,35066.2
1015,35063.39
1016,35005.48
1017,34912.9
1018,34816.43
1019,34738.52
1020,34680.48
1021,34640.33
1022,34611.6
1023,34578.02
1024,34522.3
1025,34444.12
1026,34374.51
1027,34347.29
1028,34364.32
1029,34377.38
1030,34335.12
1031,34230.2
1032,34113.41
1033,34037.48
1034,34000.43
1035,33939.52
1036,33793.14
1037,33584.14
1038,33413.89
1039,33379.21
1040,33467.28
1041,33580.69
1042,33629.21
1043,33627.21
1044,33655.56
1045,33782.86
1046,33962.45
1047,34088.09
1048,34069.13
1049,33923.02
1050,33712.21
1051,33498.61
1052,33341.52
1053,33299.2
1054,33403.89
1055,33580.75
1056,33727.51
1057,33776.19
1058,33767.84
1059,33765.02
1060,33788.88
1061,33758.34
1062,33577.77
1063,33250.18
1064,32967.96
1065,32940.87
1066,33175.96
1067,33377.4
1068,33235.23
1069,32749.44
1070,32280.2
1071,32189.12
1072,32488.6
1073,32876.48
1074,33059.09
1075,32988.96
1076,32789.1
1077,32578.35
1078,32410.23
1079,32303.88
1080,32276.98
1081,32340.45
1082,32502.49
1083,32746.4
1084,32941.19
1085,32923.41
1086,32617.52
1087,32237.05
1088,32054.19
1089,32215.02
1090,32566.18
1091,32911.63
1092,33110.61
1093,33117.72
1094,32899.63
1095,32514.74
1096,32137.81
1097,31943.31
1098,31954.18
1099,32052.79
1100,32122.92
1101,32128.85
1102,32089.06
1103,32023.06
1104,31950.71
1105,31892.01
1106,31863.47
1107,31863.01
1108,31882.3
1109,31911.11
1110,31932.23
1111,31926.88
1112,31879.57
1113,31782.96
1114,31631.37
1115,31452.48
1116,31331.04
1117,31354.58
1118,31523.26
1119,31733.38
1120,31879.29
1121,31922.41
1122,31879.61
1123,31771.02
1124,31632.15
1125,31507.31
1126,31434.94
1127,31416.94
1128,31441.32
1129,31491.07
1130,31529.45
1131,31514.89
1132,31427.12
1133,31300.09
1134,31176.14
1135,31086.5
1136,31043.75
1137,31057.67
1138,31108.97
1139,31145.88
1140,31118.7
1141,31031.28
1142,30927.38
1143,30850.25
1144,30831.91
1145,30898.87
1146,31050.92
1147,31156.8
1148,31045.16
1149,30647.65
1150,30206.81
1151,30021.86
1152,30215.71
1153,30578.35
1154,30867.18
1155,30980.79
1156,30988.18
1157,30966.11
1158,30955.98
1159,30971.84
1160,31024.3
1161,31102.05
1162,31183.12
1163,31247.18
1164,31281.79
1165,31276.83
1166,31238.44
1167,31217.84
1168,31273.38
1169,31419.53
1170,31596.96
1171,31740.4
1172,31811.14
1173,31798.09
1174,31693.95
1175,31520.49
1176,31318.03
1177,31124.68
1178,30963.15
1179,30850.29
1180,30794.58
1181,30775.37
1182,30765.78
1183,30749.55
1184,30731.71
1185,30719.52
1186,30710.85
1187,30692.36
1188,30651.57
1189,30595.94
1190,30547.11
1191,30519.96
1192,30481.82
1193,30380.33
1194,30188.84
1195,29974.75
1196,29826.65
1197,29787
1198,29804.7
1199,29818.16
1200,29793.45
1201,29728.88
1202,29627.3
1203,29524.76
1204,29479.76
1205,29538.1
1206,29665.07
1207,29795.56
1208,29876.38
1209,29892.97
1210,29838.89
1211,29738.54
1212,29670.21
1213,29713.72
1214,29861.97
1215,30022.63
1216,30108.23
1217,30111.46
1218,30068.76
1219,30014.91
1220,29974.76
1221,29970.23
1222,30006.37
1223,30047.94
1224,30054.27
1225,30002.27
1226,29891.47
1227,29725.15
1228,29536.05
1229,29377.67
1230,29293.78
1231,29266.79
1232,29256.43
1233,29236.37
1234,29221.61
1235,29234.35
1236,29271.69
1237,29292.32
1238,29254.67
1239,29166.37
1240,29075.11
1241,29023.27
1242,29008.27
1243,29008.46
1244,29007.61
1245,29007.6
1246,29013.93
1247,29025.46
1248,29030.07
1249,29015.28
1250,28979.44
1251,28930.18
1252,28877.69
1253,28847.97
1254,28873.93
1255,28964.72
1256,29051.37
1257,29050
1258,28948.74
1259,28850.73
1260,28862.12
1261,28969.61
1262,29063.31
1263,29050.15
1264,28964.35
1265,28890.83
1266,28889.41
1267,28946.05
1268,29033.29
1269,29125.37
1270,29198.89
1271,29232.33
1272,29226.34
1273,29196.99
1274,29157.38
1275,29103.63
1276,29026.34
1277,28937.69
1278,28900.35
1279,28981.35
1280,29164.83
1281,29342.54
1282,29411
1283,29356.69
1284,29214.16
1285,29030.32
1286,28897.07
1287,28916.11
1288,29099.98
1289,29309.33
1290,29397.33
1291,29338.77
1292,29206.37
1293,29070.59
1294,28971.13
1295,28936.41
1296,28975.53
1297,29049.32
1298,29111.6
1299,29130.7
1300,29091.46
1301,28987.04
1302,28876.34
1303,28852.69
1304,28960.91
1305,29073.42
1306,29026.77
1307,28794.16
1308,28556.72
1309,28498.12
1310,28608.48
1311,28744.53
1312,28790.29
1313,28772.09
1314,28757.88
1315,28785.61
1316,28834.95
1317,28879.77
1318,28910.09
1319,28929.76
1320,28944.29
1321,28966.29
1322,29010.97
1323,29083.19
1324,29163.58
1325,29230.17
1326,29281.08
1327,29334.63
1328,29405.28
1329,29474.12
1330,29507.91
1331,29493.31
1332,29470.29
1333,29486.33
1334,29549.13
1335,29622.08
1336,29669.86
1337,29685.88
1338,29677.07
1339,29655.43
1340,29647.31
1341,29680.54
1342,29747.13
1343,29797.19
1344,29786.83
1345,29741.11
1346,29718.48
1347,29752.49
1348,29802.91
1349,29817.3
1350,29780.61
1351,29721.35
1352,29666.69
1353,29613.63
1354,29544.92
1355,29461.72
1356,29416.65
1357,29468.63
1358,29603.84
1359,29728.85
1360,29760.13
1361,29714.81
1362,29653.7
1363,29621.79
1364,29623.92
1365,29658.74
1366,29724.69
1367,29819.94
1368,29938.37
1369,30048.04
1370,30107.38
1371,30103.81
1372,30086.13
1373,30107.35
1374,30158.27
1375,30178.71
1376,30127.35
1377,30062.34
1378,30071.33
1379,30180.77
1380,30312.75
1381,30385.94
1382,30401.33
1383,30413.65
1384,30461.58
1385,30521.54
1386,30556.06
1387,30546.12
1388,30496.71
1389,30417.43
1390,30341.89
1391,30315.45
1392,30355.96
1393,30409.06
1394,30411.22
1395,30354.54
1396,30283.92
1397,30237.35
1398,30203.35
1399,30153.88
1400,30075.05
1401,29978.47
1402,29878.94
1403,29797.31
1404,29758.44
1405,29777.93
1406,29839.17
1407,29918.4
1408,29988.84
1409,30020.13
1410,29990.29
1411,29935.76
1412,29917.33
1413,29975.4
1414,30106.83
1415,30300.75
1416,30515.92
1417,30688.42
1418,30772.8
1419,30797.88
1420,30810
1421,30836.33
1422,30879.74
1423,30935.31
1424,30953.9
1425,30867.41
1426,30663.88
1427,30451.42
1428,30346.87
1429,30369.95
1430,30469.84
1431,30589.25
1432,30653.7
1433,30587.85
1434,30417.94
1435,30288.4
1436,30321.16
1437,30454.69
1438,30557.61
1439,30559.11
1440,30500.16
1441,30431.28
1442,30376.67
1443,30344.49
1444,30336.79
1445,30338.44
1446,30332.08
1447,30317.75
1448,30311.49
1449,30324.98
1450,30347.03
1451,30359.99
1452,30352.34
1453,30320.82
1454,30265.37
1455,30204.61
1456,30165.15
1457,30164.03
1458,30199.38
1459,30267.05
1460,30362.5
1461,30480.93
1462,30606.52
1463,30692.42
1464,30689.76
1465,30615.39
1466,30543.15
1467,30532.68
1468,30577.55
1469,30654.34
1470,30732.35
1471,30772.43
1472,30746.68
1473,30694.57
1474,30678.66
1475,30718.95
1476,30769.17
1477,30785.91
1478,30793.63
1479,30848.41
1480,30965.09
1481,31074.54
1482,31105.92
1483,31081
1484,31077.6
1485,31133.3
1486,31179.34
1487,31135.76
1488,31010.65
1489,30878.71
1490,30800.14
1491,30782.13
1492,30819.24
1493,30870.3
1494,30861.3
1495,30747.69
1496,30608.53
1497,30550.97
1498,30595.14
1499,30666.52
1500,30700.13
1501,30700.67
1502,30693.66
1503,30697.22
1504,30720.18
1505,30765.86
1506,30809.93
1507,30818.93
1508,30789.46
1509,30760.91
1510,30769.87
1511,30813.09
1512,30871.65
1513,30931
1514,30983.5
1515,31024.93
1516,31070.87
1517,31145.21
1518,31245.9
1519,31326.81
1520,31344.2
1521,31306.84
1522,31247.85
1523,31198.08
1524,31184.11
1525,31225.73
1526,31291.36
1527,31324.94
1528,31311.5
1529,31311.96
1530,31384.03
1531,31490.92
1532,31549.95
1533,31527.14
1534,31478.95
1535,31465.86
1536,31500.06
1537,31570.23
1538,31648.79
1539,31679.25
1540,31611.86
1541,31474.22
1542,31330.07
1543,31228.61
1544,31193.5
1545,31239.26
1546,31331.95
1547,31416.54
1548,31463.05
1549,31481.79
1550,31486.76
1551,31491.52
1552,31509.21
1553,31536.6
1554,31546.53
1555,31519.34
1556,31490.08
1557,31512.26
1558,31588.35
1559,31654.75
1560,31660.99
1561,31645.05
1562,31670.88
1563,31754.42
1564,31857.62
1565,31948.82
1566,32035.78
1567,32135.69
1568,32248.31
1569,32356.75
1570,32448.1
1571,32525.71
1572,32595.69
1573,32653.12
1574,32684.4
1575,32689.35
1576,32705.02
1577,32769.64
1578,32860.83
1579,32917.62
1580,32913.71
1581,32898.71
1582,32927.08
1583,33010.58
1584,33139.16
1585,33270.63
1586,33310
1587,33184.97
1588,32994.31
1589,32898.39
1590,32931.61
1591,32969.69
1592,32915.07
1593,32834.14
1594,32833.73
1595,32919.93
1596,33004.36
1597,33032.43
1598,33066.48
1599,33183.88
1600,33363.3
1601,33516.56
1602,33606.11
1603,33707.13
1604,33898.28
1605,34166.39
1606,34454.86
1607,34727.71
1608,34980.41
1609,35216.21
1610,35464.87
1611,35761.79
1612,36071.08
1613,36283.68
1614,36332.89
1615,36303.06
1616,36299.53
1617,36296.92
1618,36180.51
1619,35899.89
1620,35543.14
1621,35206.15
1622,34913.32
1623,34657.43
1624,34428.25
1625,34211.62
1626,33997.42
1627,33794.11
1628,33614.84
1629,33467.09
1630,33353.53
1631,33269.89
1632,33194.75
1633,33107.93
1634,33023.81
1635,32974.03
1636,32960.48
1637,32940.25
1638,32884.1
1639,32845.25
1640,32895.86
1641,33002.33
1642,33036.98
1643,32934.93
1644,32803.13
1645,32759.89
1646,32780.14
1647,32766.71
1648,32698.26
1649,32664.36
1650,32729.68
1651,32809.95
1652,32788.13
1653,32685.25
1654,32634.5
1655,32707.53
1656,32827.95
1657,32908.79
1658,32936.17
1659,32927.64
1660,32882.64
1661,32778.53
1662,32625.13
1663,32549.15
1664,32683.88
1665,32941.05
1666,33092.09
1667,33051.14
1668,32982.25
1669,33029.98
1670,33112.81
1671,33085.93
1672,32958.51
1673,32874.38
1674,32916.72
1675,33015.26
1676,33086.45
1677,33109.9
1678,33093.09
1679,33069.78
1680,33103.37
1681,33216.06
1682,33299.06
1683,33238.57
1684,33109.6
1685,33086.87
1686,33209.11
1687,33323.95
1688,33312
1689,33233.79
1690,33186.59
1691,33195.78
1692,33240.32
1693,33295.59
1694,33332.6
1695,33330.47
1696,33306.31
1697,33286.66
1698,33282.47
1699,33293.23
1700,33313.22
1701,33327.78
1702,33326.41
1703,33323.77
1704,33341.39
1705,33388.35
1706,33463.79
1707,33541.09
1708,33545.34
1709,33428.22
1710,33304.07
1711,33327.5
1712,33474.65
1713,33581.04
1714,33567.24
1715,33523.09
1716,33536.75
1717,33593.72
1718,33649.26
1719,33680.17
1720,33679.68
1721,33646.79
1722,33590.05
1723,33525.55
1724,33498.4
1725,33556.71
1726,33678.71
1727,33794.13
1728,33845.54
1729,33797.9
1730,33650.3
1731,33528
1732,33569.86
1733,33726.07
1734,33835.47
1735,33837.3
1736,33809.87
1737,33818.42
1738,33853.57
1739,33891.61
1740,33914.18
1741,33906.26
1742,33875.2
1743,33852.92
1744,33860.88
1745,33891.05
1746,33934.06
1747,33999.61
1748,34101.53
1749,34200.09
1750,34210.75
1751,34114.75
1752,34017.46
1753,34010.59
1754,34067.28
1755,34131.71
1756,34180.79
1757,34211.64
1758,34226.68
1759,34234.92
1760,34248.39
1761,34286.41
1762,34358.47
1763,34397.9
1764,34314.16
1765,34172.52
1766,34176.44
1767,34375.49
1768,34520.68
1769,34420.32
1770,34263.19
1771,34303.52
1772,34448.11
1773,34412.25
1774,34186.18
1775,34088.11
1776,34288.12
1777,34542.89
1778,34598.61
1779,34491.79
1780,34354.7
1781,34275.54
1782,34309.63
1783,34440.38
1784,34549.5
1785,34552.23
1786,34487
1787,34412.15
1788,34367.11
1789,34381.78
1790,34452.41
1791,34548.12
1792,34637.36
1793,34688.8
1794,34682.97
1795,34638.58
1796,34585.29
1797,34574.58
1798,34661.02
1799,34795.28
1800,34843.72
1801,34776.51
1802,34732.29
1803,34801.36
1804,34874.37
1805,34831.9
1806,34746.59
1807,34758.38
1808,34853.21
1809,34899.19
1810,34846.4
1811,34768.34
1812,34729.37
1813,34741.2
1814,34802.01
1815,34884.7
1816,34954.21
1817,34987.17
1818,34969.14
1819,34928.65
1820,34945.86
1821,35051.8
1822,35160.72
1823,35193.44
1824,35168.75
1825,35129.85
1826,35101.9
1827,35099.63
1828,35112
1829,35104.67
1830,35077.93
1831,35090.46
1832,35174.41
1833,35265.14
1834,35290.79
1835,35243.79
1836,35140.93
1837,35015.46
1838,34910.84
1839,34857.28
1840,34869.82
1841,34948.78
1842,35067.36
1843,35190.6
1844,35266.52
1845,35250.12
1846,35167.45
1847,35072.77
1848,35016.89
1849,35046.38
1850,35150.08
1851,35249.43
1852,35295.15
1853,35303.93
1854,35298.98
1855,35298.95
1856,35317.86
1857,35346.55
1858,35366.29
1859,35350.53
1860,35270.72
1861,35177.25
1862,35203.68
1863,35377.55
1864,35533.82
1865,35544.59
1866,35448.84
1867,35315.59
1868,35210.91
1869,35189.3
1870,35208.02
1871,35178.91
1872,35113.23
1873,35105.01
1874,35181.75
1875,35278.49
1876,35352.81
1877,35424.3
1878,35504.36
1879,35548.03
1880,35512.53
1881,35440.51
1882,35399.54
1883,35396.11
1884,35402.01
1885,35399.82
1886,35382.2
1887,35346.36
1888,35295.49
1889,35257.71
1890,35312.73
1891,35485.3
1892,35595.51
1893,35477.43
1894,35267.72
1895,35180.54
1896,35229.53
1897,35327.76
1898,35421.04
1899,35480.88
1900,35479.17
1901,35388.3
1902,35244.79
1903,35193.09
1904,35309.65
1905,35472.48
1906,35551.53
1907,35505.44
1908,35338.86
1909,35202.27
1910,35271.03
1911,35455
1912,35534.27
1913,35499.06
1914,35500.12
1915,35573.38
1916,35623.37
1917,35587.6
1918,35466.68
1919,35316.34
1920,35303.48
1921,35506.05
1922,35662.73
1923,35538.56
1924,35354.03
1925,35403.99
1926,35556.94
1927,35530.69
1928,35365.84
1929,35284.87
1930,35334.49
1931,35416.01
1932,35443.54
1933,35352
1934,35171.07
1935,35071.58
1936,35153.27
1937,35345.16
1938,35542.79
1939,35607.3
1940,35457.27
1941,35259.39
1942,35201.82
1943,35261.06
1944,35349.9
1945,35434.44
1946,35499.43
1947,35473.42
1948,35264.42
1949,34985.69
1950,34900.93
1951,35019.24
1952,35091.18
1953,35024.03
1954,34944.61
1955,34946.07
1956,35039.69
1957,35186.27
1958,35254.77
1959,35163.71
1960,35004.42
1961,34884.63
1962,34862.02
1963,34959.36
1964,35088.2
1965,35142.44
1966,35107.96
1967,35009.13
1968,34901.69
1969,34847.15
1970,34812.55
1971,34718.23
1972,34604.74
1973,34593.59
1974,34690.31
1975,34797.74
1976,34842.52
1977,34783.14
1978,34680.42
1979,34721.08
1980,34895.55
1981,34881.33
1982,34590
1983,34413.82
1984,34553.06
1985,34669.27
1986,34538.4
1987,34428.84
1988,34542.91
1989,34622.01
1990,34439.83
1991,34230.66
1992,34248.36
1993,34354.27
1994,34347.4
1995,34270.45
1996,34228.25
1997,34219.91
1998,34203.12
1999,34125.96
2000,33954.21
2001,33837.96
2002,33976.86
2003,34153.89
2004,33967.83
2005,33613.8
2006,33624.04
2007,33937.61
2008,34091.27
2009,33993.56
2010,33849.39
2011,33788.32
2012,33859.56
2013,33951.32
2014,33811.39
2015,33464.12
2016,33222.65
2017,33235.27
2018,33444.57
2019,33672.07
2020,33612.47
2021,33260.78
2022,33011.36
2023,33045.89
2024,33209.73
2025,33339.53
2026,33299.13
2027,33110.79
2028,33039.77
2029,33152.8
2030,33155.33
2031,32941.74
2032,32790.29
2033,32841.29
2034,32918.64
2035,32904.41
2036,32850.45
2037,32810.98
2038,32808.74
2039,32813.63
2040,32700.1
2041,32459.1
2042,32334.39
2043,32431.86
2044,32520.03
2045,32461.01
2046,32387.95
2047,32354.29
2048,32187.29
2049,31874.57
2050,31779
2051,32029.25
2052,32200.5
2053,32071.28
2054,31944.19
2055,31974.02
2056,31918.9
2057,31687.12
2058,31546.35
2059,31596.13
2060,31566.68
2061,31353.56
2062,31201.55
2063,31215.71
2064,31215.15
2065,31090.48
2066,30887.35
2067,30718.56
2068,30770.65
2069,30982.79
2070,30950.46
2071,30639.78
2072,30522.85
2073,30694.95
2074,30762.05
2075,30624.18
2076,30537.95
2077,30566.32
2078,30555.97
2079,30447.36
2080,30280.55
2081,30109.46
2082,29994.78
2083,29965.91
2084,30019.33
2085,30043.42
2086,29869.54
2087,29546.7
2088,29260.35
2089,29169.13
2090,29373.54
2091,29623.2
2092,29555.28
2093,29255.29
2094,28975.94
2095,28792.23
2096,28698.92
2097,28623.55
2098,28496.67
2099,28359.95
2100,28274.75
2101,28260.21
2102,28296.05
2103,28268.9
2104,28107.74
2105,27902.8
2106,27739.73
2107,27634.78
2108,27585.31
2109,27570.21
2110,27527.67
2111,27340.19
2112,27054.56
2113,26929.88
2114,27025.53
2115,27171.94
2116,27246.18
2117,27182.7
2118,26992.46
2119,26742.93
2120,26517.29
2121,26392.35
2122,26321.8
2123,26209.09
2124,26017.29
2125,25764.19
2126,25620.93
2127,25706.44
2128,25767.28
2129,25596.68
2130,25380.06
2131,25277.17
2132,25228.68
2133,25161.94
2134,25034.42
2135,24831.41
2136,24574.25
2137,24335.34
2138,24227.67
2139,24175.68
2140,23972.88
2141,23732.02
2142,23720.8
2143,23781.74
2144,23621.86
2145,23375.97
2146,23273.6
2147,23282.7
2148,23288.74
2149,23138.64
2150,22804.83
2151,22558.8
2152,22534.4
2153,22567.7
2154,22521.92
2155,22333.46
2156,22033.08
2157,21730.26
2158,21490.76
2159,21345.19
2160,21292.52
2161,21292.98
2162,21176.11
2163,20830.05
2164,20537.98
2165,20493.51
2166,20406.39
2167,20136.93
2168,19963.96
2169,19960.12
2170,19879.43
2171,19676.52
2172,19504.04
2173,19419.62
2174,19400.17
2175,19320.92
2176,19063.18
2177,18758.63
2178,18574.62
2179,18548.6
2180,18611.46
2181,18526.55
2182,18253.77
2183,18057.68
2184,17978.88
2185,17829.37
2186,17610.75
2187,17439.86
2188,17300.98
2189,17142.22
2190,17020.69
2191,16966.95
2192,16844.57
2193,16578.72
2194,16266.9
2195,16037.46
2196,16016.73
2197,16063.92
2198,15868.38
2199,15532.58
2200,15332.41
2201,15296.84
2202,15349.57
2203,15339.97
2204,15174.58
2205,14904.39
2206,14593.31
2207,14300.68
2208,14098.86
2209,14044.93
2210,13973.68
2211,13687.96
2212,13388.5
2213,13305.48
2214,13397.79
2215,13475.58
2216,13191.32
2217,12635.6
2218,12348.59
2219,12367.8
2220,12412.01
2221,12409.49
2222,12356.29
2223,12181.55
2224,11900.25
2225,11735.95
2226,11685.81
2227,11453.15
2228,11137.27
2229,11086.94
2230,11146.33
2231,11015.49
2232,10743.75
2233,10452.71
2234,10227.84
2235,10167.43
2236,10368.77
2237,10574.68
2238,10357.3
2239,10021.39
2240,10008.45
2241,10043.55
2242,9820.376
2243,9332.464
2244,8836.75
2245,8796.313
2246,8930.177
2247,8621.936
2248,8306.794
2249,8489.975
2250,8670.606
2251,8505.044
2252,8241.85
2253,8129.043
2254,8296.492
2255,8310.599
2256,7702.616
2257,7103.588
2258,7041.832
2259,7161.708
2260,7239.552
2261,7341.48
2262,7413.794
2263,7338.609
2264,7136.008
2265,6850.477
2266,6467.426
2267,6115.039
2268,6100.045
2269,6209.175
2270,5946.229
2271,5567.416
2272,5459.214
2273,5506.927
2274,5608.012
2275,5806.699
2276,5898.026
2277,5572.419
2278,5208.538
2279,5216.713
2280,5241.805
2281,5061.447
2282,4872.968
2283,4785.027
2284,4785.874
2285,4715.006
2286,4476.619
2287,4318.732
2288,4370.799
2289,4511.122
2290,4611.817
2291,4560.924
2292,4286.742
2293,3881.364
2294,3787.877
2295,4004.118
2296,3997.13
2297,3788.984
2298,3645.03
2299,3428.675
2300,3086.119
