400,32622.91
401,32594.58
402,32538.43
403,32477.07
404,32435.42
405,32431.72
406,32453.85
407,32480.9
408,32492.79
409,32480.09
410,32441.64
411,32376.54
412,32291.09
413,32205.53
414,32141.61
415,32115.73
416,32116.2
417,32122.11
418,32113.91
419,32093.91
420,32083.05
421,32102.63
422,32156.83
423,32214.06
424,32238.29
425,32201.32
426,32118.49
427,32020.45
428,31936.72
429,31879.4
430,31845.25
431,31830.45
432,31827.13
433,31818.66
434,31787.36
435,31719.92
436,31627.24
437,31528.68
438,31442.82
439,31375.58
440,31322.02
441,31276.89
442,31235.66
443,31195.26
444,31152.81
445,31105.52
446,31050.98
447,30986.93
448,30911.63
449,30831.49
450,30759.33
451,30707.97
452,30681.16
453,30666.1
454,30648.35
455,30615.56
456,30564.63
457,30495.07
458,30407.09
459,30309.48
460,30216.85
461,30143.65
462,30093.62
463,30054.12
464,30011.19
465,29956.1
466,29899.1
467,29854.69
468,29834.99
469,29829.93
470,29817.37
471,29775.53
472,29696.97
473,29591.69
474,29470.66
475,29346.66
476,29237.53
477,29161.87
478,29133.87
479,29138.13
480,29147.1
481,29134.36
482,29094
483,29038.9
484,28982.49
485,28932.83
486,28887.28
487,28841.95
488,28794.08
489,28745.84
490,28700.87
491,28662.14
492,28625.32
493,28581.34
494,28521.35
495,28446.93
496,28373.83
497,28318.75
498,28289.47
499,28267.31
500,28228.79
501,28155
502,28058.19
503,27963.69
504,27895.46
505,27853.14
506,27814.67
507,27757.51
508,27675.79
509,27594.32
510,27541.12
511,27532.51
512,27538.13
513,27515.97
514,27430.36
515,27303.39
516,27188.72
517,27138.26
518,27154.07
519,27183.11
520,27169.82
521,27086.25
522,26966.36
523,26852.45
524,26777.82
525,26732.58
526,26693.76
527,26640.68
528,26577.75
529,26525.21
530,26502.73
531,26506.09
532,26501.29
533,26452.77
534,26345.24
535,26213.77
536,26100.92
537,26039.13
538,26008.62
539,25972.57
540,25897.99
541,25795.68
542,25705.13
543,25665.2
544,25680.89
545,25714.62
546,25726.35
547,25691.8
548,25625.05
549,25545.9
550,25471.28
551,25404.25
552,25343.47
553,25287.65
554,25235.77
555,25187
556,25140.46
557,25094.17
558,25044.88
559,24989.29
560,24929.92
561,24881.82
562,24861.63
563,24877.38
564,24900.26
565,24891.77
566,24818.96
567,24696.92
568,24565.63
569,24463.84
570,24402.92
571,24368.11
572,24343.74
573,24317.83
574,24284.76
575,24239.57
576,24178.78
577,24103.73
578,24016.7
579,23921.53
580,23831.81
581,23764.98
582,23736.66
583,23739.04
584,23747.57
585,23737.85
586,23701.83
587,23652.06
588,23602.29
589,23559.25
590,23513.73
591,23454.41
592,23374.82
593,23288.96
594,23216.11
595,23172.94
596,23155.42
597,23149.56
598,23141.64
599,23122.32
600,23085.92
601,23027.13
602,22950.34
603,22873.99
604,22817.47
605,22788.81
606,22767.56
607,22728.97
608,22655.69
609,22563.93
610,22479.37
611,22424.55
612,22396.66
613,22380.12
614,22360.06
615,22334.4
616,22311.9
617,22301.35
618,22299.75
619,22287.4
620,22243.5
621,22161.14
622,22066.38
623,21989.95
624,21952.36
625,21932.08
626,21896.81
627,21820.07
628,21717.67
629,21624.25
630,21572.06
631,21560.69
632,21565.64
633,21562.37
634,21538.29
635,21495.05
636,21435.12
637,21364.14
638,21293.81
639,21236.48
640,21198.83
641,21169.54
642,21133.74
643,21080.83
644,21022.87
645,20979.53
646,20967.47
647,20975.43
648,20976.82
649,20946.4
650,20883.35
651,20808.05
652,20741.19
653,20691.28
654,20650.41
655,20609.64
656,20566.29
657,20531.1
658,20516.43
659,20526.66
660,20539.04
661,20525.11
662,20463.55
663,20371.92
664,20281.17
665,20219.22
666,20186.97
667,20170.71
668,20156.8
669,20134.17
670,20093.91
671,20027.54
672,19938.85
673,19846.78
674,19771.06
675,19720.33
676,19682.5
677,19643.29
678,19594.42
679,19544.76
680,19506.21
681,19486.31
682,19473.08
683,19449.17
684,19400.68
685,19337.87
686,19281.36
687,19249.52
688,19235.42
689,19215.94
690,19169.15
691,19100.8
692,19042.43
693,19025.72
694,19051.82
695,19080.74
696,19069.93
697,18998.95
698,18890.58
699,18772.51
700,18669.42
701,18597.53
702,18571.45
703,18597.14
704,18643.28
705,18668.63
706,18638.95
707,18564.02
708,18471.04
709,18385.74
710,18320.04
711,18277.93
712,18262.52
713,18264.12
714,18262.85
715,18239.26
716,18192.48
717,18142.24
718,18109.1
719,18100.63
720,18104.49
721,18106.69
722,18096.58
723,18070.65
724,18026.34
725,17964.21
726,17894.24
727,17828.21
728,17775.4
729,17734.72
730,17702.29
731,17674.21
732,17646.44
733,17614.9
734,17576.31
735,17534.48
736,17496.86
737,17470.04
738,17449.13
739,17421.19
740,17373.81
741,17308.27
742,17238.59
743,17179.02
744,17135.62
745,17104.33
746,17080.46
747,17060.32
748,17041.79
749,17022.93
750,17004.88
751,16995.5
752,17003.51
753,17029.86
754,17052.81
755,17046.64
756,16995.6
757,16922.67
758,16860.22
759,16832.77
760,16824.27
761,16805.49
762,16752.12
763,16673.93
764,16595.27
765,16538.01
766,16500.31
767,16467.2
768,16424.69
769,16373.02
770,16322.54
771,16283.37
772,16257.63
773,16240.32
774,16226.15
775,16208.94
776,16181.43
777,16136.55
778,16076.01
779,16013.9
780,15965.11
781,15938.29
782,15931.02
783,15939.77
784,15956.98
785,15966.18
786,15949.77
787,15899.63
788,15833.72
789,15774.4
790,15737.14
791,15713.66
792,15690.55
793,15657.78
794,15619.94
795,15585.58
796,15561.26
797,15543.08
798,15523.57
799,15495.72
800,15455.52
801,15400.23
802,15328.31
803,15248.61
804,15175.17
805,15121.24
806,15091.39
807,15084.92
808,15100.02
809,15120.44
810,15119.49
811,15072.16
812,14985
813,14891.61
814,14825.23
815,14793.71
816,14779.32
817,14763.67
818,14739.96
819,14715.14
820,14696.67
821,14682.42
822,14657.04
823,14604.59
824,14528.01
825,14460.3
826,14436.78
827,14465.11
828,14501.98
829,14498.92
830,14435.31
831,14349.94
832,14289.03
833,14278.45
834,14294.23
835,14304.94
836,14289.01
837,14252.43
838,14206.08
839,14158.74
840,14112.71
841,14068.94
842,14028.01
843,13989.14
844,13951.23
845,13913.82
846,13879.1
847,13849.99
848,13827
849,13799.23
850,13752.43
851,13677.98
852,13597.59
853,13543.1
854,13539.29
855,13568.68
856,13598.01
857,13598.18
858,13567.79
859,13516.91
860,13456.43
861,13403.33
862,13377.36
863,13394.17
864,13435.35
865,13465.58
866,13453.48
867,13404.48
868,13343.93
869,13295.26
870,13260.79
871,13230.48
872,13195.16
873,13156.35
874,13122.34
875,13100.63
876,13087.91
877,13073.62
878,13048.3
879,13018.52
880,13002.28
881,13015.84
882,13046.55
883,13060.01
884,13023.83
885,12944.67
886,12860.17
887,12806.93
888,12790.68
889,12791.38
890,12789.15
891,12779.01
892,12769
893,12766.98
894,12770.04
895,12765.5
896,12741.29
897,12703.93
898,12677.24
899,12684.26
900,12719.15
901,12748.35
902,12738.77
903,12689.85
904,12632.96
905,12599.57
906,12594.96
907,12598.21
908,12588.04
909,12560.36
910,12528.46
911,12505.93
912,12496.2
913,12492.23
914,12486.58
915,12472.81
916,12445.54
917,12399.74
918,12337.51
919,12268.34
920,12201.79
921,12142.26
922,12088.86
923,12040.5
924,11996.86
925,11958.39
926,11925.64
927,11899.97
928,11883.59
929,11878.5
930,11880.78
931,11880.71
932,11868.78
933,11844.82
934,11817.64
935,11795.95
936,11778.28
937,11753.62
938,11711.38
939,11655.86
940,11605
941,11576.21
942,11568.96
943,11566.83
944,11553.75
945,11528
946,11500.09
947,11480.25
948,11468.5
949,11456.6
950,11436.63
951,11409.34
952,11382.14
953,11362.33
954,11352.81
955,11353.32
956,11362.81
957,11371.22
958,11362.29
959,11321.95
960,11263.3
961,11217.2
962,11211.51
963,11239.42
964,11272.95
965,11286.07
966,11274.57
967,11246.67
968,11210.75
969,11175.59
970,11150.21
971,11141.87
972,11144.17
973,11144.02
974,11130.2
975,11105.2
976,11077.63
977,11055.28
978,11040.63
979,11033.99
980,11034.37
981,11033.14
982,11018.88
983,10983.91
984,10940.34
985,10906.82
986,10896.48
987,10896.39
988,10885.98
989,10851.32
990,10806.61
991,10773.39
992,10766.02
993,10772.17
994,10773.34
995,10756.81
996,10728.8
997,10699.42
998,10674.78
999,10649.5
1000,10616.18
1001,10572.33
1002,10527.89
1003,10494.7
1004,10478.89
1005,10474
1006,10471.9
1007,10465.72
1008,10454.47
1009,10438.8
1010,10420.45
1011,10405.36
1012,10400.55
1013,10408.87
1014,10418.88
1015,10416.1
1016,10392.5
1017,10359.28
1018,10331.13
1019,10317.23
1020,10312.78
1021,10310.8
1022,10305.12
1023,10291.29
1024,10265.18
1025,10230.14
1026,10203.32
1027,10203.05
1028,10232.72
1029,10272.25
1030,10299.78
1031,10300.97
1032,10271.37
1033,10207.9
1034,10125.26
1035,10058.01
1036,10039.8
1037,10067.18
1038,10102.21
1039,10107.9
1040,10079.73
1041,10038.27
1042,10003.67
1043,9984.567
1044,9982.29
1045,9996.977
1046,10019.47
1047,10035.82
1048,10034.4
1049,10019.47
1050,10001.86
1051,9990.585
1052,9984.795
1053,9980.407
1054,9974.103
1055,9965.696
1056,9955.811
1057,9944.451
1058,9929.667
1059,9909.12
1060,9882.712
1061,9855.867
1062,9834.806
1063,9822.323
1064,9814.637
1065,9807.274
1066,9798.66
1067,9791.523
1068,9788.847
1069,9790.608
1070,9793.293
1071,9793.401
1072,9791.3
1073,9790.835
1074,9795.694
1075,9806.029
1076,9819.543
1077,9834.425
1078,9853.631
1079,9882.607
1080,9925.142
1081,9974.328
1082,10019.09
1083,10049.69
1084,10062.45
1085,10055.46
1086,10029.81
1087,9996.464
1088,9968.407
1089,9954.288
1090,9952.49
1091,9959.849
1092,9968.548
1093,9962.705
1094,9926.199
1095,9862.906
1096,9802.05
1097,9772.976
1098,9775.159
1099,9780.393
1100,9761.716
1101,9720.016
1102,9674.916
1103,9644.345
1104,9630.087
1105,9626.172
1106,9626.68
1107,9626.203
1108,9619.511
1109,9604.633
1110,9591.457
1111,9592.54
1112,9612.636
1113,9637.181
1114,9648.811
1115,9639.818
1116,9618.978
1117,9596.524
1118,9578.202
1119,9564.419
1120,9554.975
1121,9544.669
1122,9524.179
1123,9485.437
1124,9433.878
1125,9382.615
1126,9342.662
1127,9311.623
1128,9282.009
1129,9249.537
1130,9222.646
1131,9212.896
1132,9223.229
1133,9234.606
1134,9224.757
1135,9186.887
1136,9140.195
1137,9105.824
1138,9089.803
1139,9081.27
1140,9069.301
1141,9054.768
1142,9047.33
1143,9054.995
1144,9070.787
1145,9080.445
1146,9072.975
1147,9053.619
1148,9032.599
1149,9018.03
1150,9011.707
1151,9014.189
1152,9022.454
1153,9026.688
1154,9016.644
1155,8992.53
1156,8967.179
1157,8953.276
1158,8950.165
1159,8946.865
1160,8933.783
1161,8914.741
1162,8900.082
1163,8897.667
1164,8903.523
1165,8910.199
1166,8914.2
1167,8923.018
1168,8945.87
1169,8980.386
1170,9004.704
1171,8996.215
1172,8959.392
1173,8926.847
1174,8929.028
1175,8956.73
1176,8975.402
1177,8955.864
1178,8904.535
1179,8841.392
1180,8784.426
1181,8744.635
1182,8731.434
1183,8745.051
1184,8767.31
1185,8778.196
1186,8769.086
1187,8744.932
1188,8711.588
1189,8676.427
1190,8647.896
1191,8632.817
1192,8626.892
1193,8621.215
1194,8609.095
1195,8591.948
1196,8573.048
1197,8555.5
1198,8542.081
1199,8535.357
1200,8532.592
1201,8524.854
1202,8504.059
1203,8477.009
1204,8460.576
1205,8468.003
1206,8489.121
1207,8504.917
1208,8502.726
1209,8490.331
1210,8479.563
1211,8476.762
1212,8478.688
1213,8481.349
1214,8485.368
1215,8495.893
1216,8516.941
1217,8540.144
1218,8550.344
1219,8537.663
1220,8517.016
1221,8510.46
1222,8527.549
1223,8548.011
1224,8547.698
1225,8521.162
1226,8487.001
1227,8464.154
1228,8455.241
1229,8451.396
1230,8444.793
1231,8435.285
1232,8425.578
1233,8418.386
1234,8416.451
1235,8422.396
1236,8431.827
1237,8429.635
1238,8401.29
1239,8356.693
1240,8325.653
1241,8332.246
1242,8356.69
1243,8360.635
1244,8322.635
1245,8277.219
1246,8269.983
1247,8313.168
1248,8364.183
1249,8377.707
1250,8350.659
1251,8316.004
1252,8303.557
1253,8312.369
1254,8328.175
1255,8339.693
1256,8345.656
1257,8346.836
1258,8343.309
1259,8334.045
1260,8318.328
1261,8302.104
1262,8296.708
1263,8310.409
1264,8330.565
1265,8336.216
1266,8317.236
1267,8295.292
1268,8297.34
1269,8326.963
1270,8354.984
1271,8352.37
1272,8323.766
1273,8297.189
1274,8294.851
1275,8305.905
1276,8308.739
1277,8294.311
1278,8283.051
1279,8298.73
1280,8339.821
1281,8376.551
1282,8381.343
1283,8360.464
1284,8338.315
1285,8332.508
1286,8333.991
1287,8327.483
1288,8308.929
1289,8293.419
1290,8296.987
1291,8320.507
1292,8352.642
1293,8382.468
1294,8403.671
1295,8411.632
1296,8403.599
1297,8381.517
1298,8348.194
1299,8310.602
1300,8280.437
1301,8268.392
1302,8273.847
1303,8290.278
1304,8310.749
1305,8327.092
1306,8330.949
1307,8320.082
1308,8301.542
1309,8282.965
1310,8269.312
1311,8263.704
1312,8268.059
1313,8278.745
1314,8290.523
1315,8301.589
1316,8316.787
1317,8341.068
1318,8367.695
1319,8379.92
1320,8365.226
1321,8338.252
1322,8323.591
1323,8336.31
1324,8369.094
1325,8411.251
1326,8448.193
1327,8461.432
1328,8436.92
1329,8393.283
1330,8363.143
1331,8368.022
1332,8399.502
1333,8444.314
1334,8492.662
1335,8538.61
1336,8576.304
1337,8599.031
1338,8599.686
1339,8577.85
1340,8552.402
1341,8545.013
1342,8555.172
1343,8556.43
1344,8525.621
1345,8478.582
1346,8450.074
1347,8459.969
1348,8484.164
1349,8491.336
1350,8475.317
1351,8459.191
1352,8463.771
1353,8478.693
1354,8478.872
1355,8452.913
1356,8427.865
1357,8436.306
1358,8478.727
1359,8520.546
1360,8531.151
1361,8521.472
1362,8520.447
1363,8543.691
1364,8573.241
1365,8586.827
1366,8581.914
1367,8575.173
1368,8581.591
1369,8600.915
1370,8627.174
1371,8652.701
1372,8666.3
1373,8657.382
1374,8633.279
1375,8616.043
1376,8623.591
1377,8651.464
1378,8688.398
1379,8721.164
1380,8733.222
1381,8710.425
1382,8671.104
1383,8654.811
1384,8686.366
1385,8735.08
1386,8758.124
1387,8738.292
1388,8691.805
1389,8637.137
1390,8592.414
1391,8575.605
1392,8592.924
1393,8619.78
1394,8627.709
1395,8612.691
1396,8593.911
1397,8587.126
1398,8584.315
1399,8569.534
1400,8538.622
1401,8508.581
1402,8496.938
1403,8500.911
1404,8504.469
1405,8496.59
1406,8484.462
1407,8479.043
1408,8485.141
1409,8500.289
1410,8521.467
1411,8544.818
1412,8566.121
1413,8580.659
1414,8582.705
1415,8567.494
1416,8546.066
1417,8541.219
1418,8568.123
1419,8611.162
1420,8647.544
1421,8666.892
1422,8674.551
1423,8676.146
1424,8672.007
1425,8660.18
1426,8639.681
1427,8611.647
1428,8577.881
1429,8545.459
1430,8525.303
1431,8525.306
1432,8541.883
1433,8568.661
1434,8594.037
1435,8600.326
1436,8574.681
1437,8536.649
1438,8518.085
1439,8533.562
1440,8565.873
1441,8595.17
1442,8610.464
1443,8606.125
1444,8583.541
1445,8564.148
1446,8571.508
1447,8598.36
1448,8609.069
1449,8578.734
1450,8536.548
1451,8526.402
1452,8558.854
1453,8599.224
1454,8615.111
1455,8613.718
1456,8619.259
1457,8643.226
1458,8671.894
1459,8689.764
1460,8694.845
1461,8693.571
1462,8691.748
1463,8692.997
1464,8700.275
1465,8711.262
1466,8719.065
1467,8718.861
1468,8714.899
1469,8713.641
1470,8718.626
1471,8729.959
1472,8746.675
1473,8762.906
1474,8771.07
1475,8765.965
1476,8746.089
1477,8712.379
1478,8682.213
1479,8680.616
1480,8713.508
1481,8748.058
1482,8750.362
1483,8726.229
1484,8705.505
1485,8707.724
1486,8724.667
1487,8743.668
1488,8752.192
1489,8737.789
1490,8697.045
1491,8655.97
1492,8644.995
1493,8661.628
1494,8673.144
1495,8655.531
1496,8624.578
1497,8605.624
1498,8611.055
1499,8639.163
1500,8682.952
1501,8713.537
1502,8696.442
1503,8636.396
1504,8587.506
1505,8594.875
1506,8634.404
1507,8658.376
1508,8649.346
1509,8633.049
1510,8634.396
1511,8651.355
1512,8671.422
1513,8691.666
1514,8724.29
1515,8778.335
1516,8830.839
1517,8845.262
1518,8812.51
1519,8770.2
1520,8755.278
1521,8763.723
1522,8772.709
1523,8772.962
1524,8779.702
1525,8808.461
1526,8856.473
1527,8912.102
1528,8960.331
1529,8980.095
1530,8954.22
1531,8903.284
1532,8866.204
1533,8861.259
1534,8868.391
1535,8866.659
1536,8861.894
1537,8872.735
1538,8901.014
1539,8918.11
1540,8897.859
1541,8858.558
1542,8839.081
1543,8856.345
1544,8889.205
1545,8914.967
1546,8927.441
1547,8927.657
1548,8915.823
1549,8890.786
1550,8853.962
1551,8824.313
1552,8827.495
1553,8866.521
1554,8911.357
1555,8934.392
1556,8937.792
1557,8934.219
1558,8928.74
1559,8916.56
1560,8895.066
1561,8875.828
1562,8874.45
1563,8894.507
1564,8926.038
1565,8959.593
1566,8991.011
1567,9017.587
1568,9038.461
1569,9054.549
1570,9067.783
1571,9083.323
1572,9106.634
1573,9136.88
1574,9168.243
1575,9196.001
1576,9218.854
1577,9236.332
1578,9250.796
1579,9266.413
1580,9283.946
1581,9296.81
1582,9298.238
1583,9288.115
1584,9269.706
1585,9249.308
1586,9238.179
1587,9247.406
1588,9283.83
1589,9351.947
1590,9428.988
1591,9457.93
1592,9404.172
1593,9342.157
1594,9371.605
1595,9489.086
1596,9594.463
1597,9616.26
1598,9584.469
1599,9547.158
1600,9531.13
1601,9548.692
1602,9597.25
1603,9642.561
1604,9651.281
1605,9631.195
1606,9609.7
1607,9611.592
1608,9657.514
1609,9756.136
1610,9856.224
1611,9890.236
1612,9864.356
1613,9860.445
1614,9928.229
1615,9999.938
1616,9991.76
1617,9925.103
1618,9893.328
1619,9936.476
1620,9979.898
1621,9947.108
1622,9854.64
1623,9759.529
1624,9695.008
1625,9662.225
1626,9651.13
1627,9613.374
1628,9495.695
1629,9339.709
1630,9266.834
1631,9335.346
1632,9437.649
1633,9454.478
1634,9392.092
1635,9320.802
1636,9282.949
1637,9278.054
1638,9299.433
1639,9327.727
1640,9340.963
1641,9339.843
1642,9345.253
1643,9366.292
1644,9379.604
1645,9360.715
1646,9321.213
1647,9290.844
1648,9281.573
1649,9279.336
1650,9272.245
1651,9267.195
1652,9275.231
1653,9290.554
1654,9293.692
1655,9276.569
1656,9257.987
1657,9256.118
1658,9257.356
1659,9235.256
1660,9200.029
1661,9206.362
1662,9284.444
1663,9369.777
1664,9384.984
1665,9343.653
1666,9317.12
1667,9335.374
1668,9355.494
1669,9339.847
1670,9314.659
1671,9323.484
1672,9356.285
1673,9356.19
1674,9302.127
1675,9260.805
1676,9296.111
1677,9362.38
1678,9369.815
1679,9313.59
1680,9285.418
1681,9344.455
1682,9433.808
1683,9480.268
1684,9466.385
1685,9405.407
1686,9332.531
1687,9313.059
1688,9384.756
1689,9472.157
1690,9481.084
1691,9415.013
1692,9340.376
1693,9302.337
1694,9309.503
1695,9360.901
1696,9427.932
1697,9475.365
1698,9483.631
1699,9444.81
1700,9373.738
1701,9325.891
1702,9344.581
1703,9392.202
1704,9409.872
1705,9391.791
1706,9373.471
1707,9375.469
1708,9387.666
1709,9397.184
1710,9394.771
1711,9373.451
1712,9344.408
1713,9333.115
1714,9351.385
1715,9384.306
1716,9416.343
1717,9443.916
1718,9466.885
1719,9482.021
1720,9483.817
1721,9473.954
1722,9467.083
1723,9475.286
1724,9492.676
1725,9508.718
1726,9518.929
1727,9522.979
1728,9517.204
1729,9492.481
1730,9448.322
1731,9420.039
1732,9445.464
1733,9494.701
1734,9498.38
1735,9444.592
1736,9400.537
1737,9412.938
1738,9444.025
1739,9446.093
1740,9430.037
1741,9434.568
1742,9470.889
1743,9519.646
1744,9560.077
1745,9571.994
1746,9543.111
1747,9509.075
1748,9520.46
1749,9571.35
1750,9608.203
1751,9602.59
1752,9575.438
1753,9550.256
1754,9538.361
1755,9546.559
1756,9567.639
1757,9585.883
1758,9590.805
1759,9579.006
1760,9553.351
1761,9533.415
1762,9537.415
1763,9553.33
1764,9557.885
1765,9555.046
1766,9573.02
1767,9618.254
1768,9654.705
1769,9655.683
1770,9653.682
1771,9688.631
1772,9719.001
1773,9659.462
1774,9525.951
1775,9454.765
1776,9522.244
1777,9639.082
1778,9706.633
1779,9714.401
1780,9682.257
1781,9635.089
1782,9601.059
1783,9592.211
1784,9597.395
1785,9607.679
1786,9626.02
1787,9654.053
1788,9670.755
1789,9648.423
1790,9598.01
1791,9561.243
1792,9556.915
1793,9566.231
1794,9572.716
1795,9578.042
1796,9587.038
1797,9601.226
1798,9620.419
1799,9639.343
1800,9648.667
1801,9649.52
1802,9659.767
1803,9689.807
1804,9721.812
1805,9735.004
1806,9725.885
1807,9699.007
1808,9675.479
1809,9688.608
1810,9738.637
1811,9777.474
1812,9771.506
1813,9738.187
1814,9703.983
1815,9696.095
1816,9737.283
1817,9792.775
1818,9791.405
1819,9720.591
1820,9639.45
1821,9596.762
1822,9608.271
1823,9672.149
1824,9729.938
1825,9718.965
1826,9674.238
1827,9676.866
1828,9725.557
1829,9743.2
1830,9705.942
1831,9682.303
1832,9715.529
1833,9746.319
1834,9715.492
1835,9676.181
1836,9710.855
1837,9776.462
1838,9753.347
1839,9641.281
1840,9574.449
1841,9622.11
1842,9713.12
1843,9771.688
1844,9763.161
1845,9675.497
1846,9585.741
1847,9595.682
1848,9664.117
1849,9654.927
1850,9574.729
1851,9598.868
1852,9781.732
1853,9918.283
1854,9854.67
1855,9722.592
1856,9687.149
1857,9733.158
1858,9780.881
1859,9806.077
1860,9820.029
1861,9818.329
1862,9779.484
1863,9708.025
1864,9655.407
1865,9656.701
1866,9684.754
1867,9711.562
1868,9762.397
1869,9867.013
1870,9945.153
1871,9868.615
1872,9682.572
1873,9576.107
1874,9615.254
1875,9695.423
1876,9744.449
1877,9785.19
1878,9834.897
1879,9848.505
1880,9782.813
1881,9685.661
1882,9631.434
1883,9629.078
1884,9650.476
1885,9680.147
1886,9714.197
1887,9744.499
1888,9756.662
1889,9746.438
1890,9731.963
1891,9726.382
1892,9716.729
1893,9690.285
1894,9664.544
1895,9663.423
1896,9679.328
1897,9688.884
1898,9674.778
1899,9626.17
1900,9582.609
1901,9639.6
1902,9792.154
1903,9860.772
1904,9750.687
1905,9623.994
1906,9627.91
1907,9697.536
1908,9731.313
1909,9713.105
1910,9659.423
1911,9600.608
1912,9571.964
1913,9569.82
1914,9561.163
1915,9542.247
1916,9542.324
1917,9570.757
1918,9602.946
1919,9622.851
1920,9640.425
1921,9658.632
1922,9646.158
1923,9584.343
1924,9547.821
1925,9616.46
1926,9712.731
1927,9706.179
1928,9614.607
1929,9540.47
1930,9523.992
1931,9552.891
1932,9596.11
1933,9604.1
1934,9566.548
1935,9533.844
1936,9537.03
1937,9556.876
1938,9572.089
1939,9573.105
1940,9558.98
1941,9554.419
1942,9578.382
1943,9585.194
1944,9521.438
1945,9438.016
1946,9423.797
1947,9469.243
1948,9508.884
1949,9526.683
1950,9544.725
1951,9557.363
1952,9530.521
1953,9460.12
1954,9383.021
1955,9339.86
1956,9372.647
1957,9482.7
1958,9583.037
1959,9599.003
1960,9523.215
1961,9383.013
1962,9289.079
1963,9332.873
1964,9426.016
1965,9447.775
1966,9401.672
1967,9337.413
1968,9302
1969,9333.487
1970,9390.751
1971,9390.985
1972,9317.455
1973,9202.409
1974,9094.822
1975,9055.759
1976,9101.791
1977,9201.197
1978,9306.906
1979,9355.939
1980,9328.466
1981,9272.897
1982,9241.698
1983,9283.576
1984,9387.519
1985,9411.787
1986,9281.855
1987,9146.929
1988,9131.539
1989,9167.185
1990,9182.014
1991,9233.566
1992,9366.134
1993,9431.124
1994,9284.703
1995,9088.248
1996,9054.103
1997,9096.214
1998,9046.51
1999,8960.236
2000,8970.374
2001,9042.503
2002,9068.31
2003,9036.443
2004,8991.271
2005,8982.906
2006,9055.696
2007,9132.963
2008,9066.079
2009,8927.371
2010,8949.807
2011,9089.043
2012,9067.872
2013,8880.254
2014,8779.562
2015,8834.627
2016,8913.091
2017,8946.479
2018,8949.479
2019,8943.516
2020,8951.97
2021,8965.033
2022,8930.356
2023,8847.23
2024,8790.642
2025,8798.727
2026,8845.938
2027,8883.18
2028,8833.522
2029,8687.699
2030,8552.16
2031,8512.578
2032,8598.709
2033,8751.089
2034,8761.509
2035,8580.981
2036,8484.389
2037,8598.989
2038,8702.619
2039,8672.178
2040,8655.108
2041,8719.865
2042,8715.827
2043,8574.859
2044,8446.71
2045,8425.993
2046,8442.698
2047,8434.198
2048,8393.327
2049,8341.438
2050,8343.279
2051,8402.479
2052,8391.624
2053,8276.744
2054,8235.566
2055,8325.017
2056,8326.113
2057,8170.557
2058,8125.228
2059,8279.33
2060,8340.638
2061,8199.924
2062,8129.447
2063,8236.103
2064,8294.227
2065,8200.461
2066,8090.711
2067,8052.21
2068,8068.714
2069,8106.878
2070,8122.188
2071,8110.595
2072,8120.137
2073,8137.394
2074,8073.733
2075,7948.059
2076,7900.397
2077,7945.734
2078,7966.43
2079,7927.793
2080,7879.331
2081,7859.522
2082,7890.932
2083,7942.64
2084,7948.037
2085,7920.617
2086,7922.429
2087,7913.94
2088,7807.34
2089,7679.62
2090,7673.604
2091,7700.296
2092,7588.697
2093,7411.817
2094,7330.935
2095,7393.307
2096,7574.419
2097,7700.872
2098,7618.522
2099,7474.901
2100,7440.325
2101,7455.798
2102,7437.12
2103,7390.597
2104,7350.395
2105,7376.844
2106,7458.717
2107,7417.693
2108,7214.307
2109,7106.848
2110,7186.493
2111,7236.77
2112,7165.481
2113,7074.587
2114,7012.799
2115,6958.255
2116,6908.399
2117,6879.902
2118,6873.045
2119,6875.646
2120,6876.668
2121,6867.005
2122,6846.374
2123,6817.008
2124,6770.283
2125,6701.088
2126,6641.852
2127,6630.835
2128,6685.021
2129,6773.885
2130,6743.812
2131,6543.996
2132,6404.872
2133,6419.501
2134,6375.194
2135,6243.79
2136,6282.42
2137,6462.827
2138,6449.666
2139,6259.472
2140,6188.646
2141,6240.059
2142,6246.107
2143,6226.775
2144,6266.709
2145,6286.432
2146,6195.451
2147,6111.679
2148,6148.081
2149,6229.705
2150,6257.25
2151,6159.858
2152,5948.185
2153,5760.413
2154,5668.052
2155,5644.393
2156,5647.189
2157,5628.718
2158,5580.947
2159,5524.846
2160,5498.805
2161,5533.884
2162,5574.771
2163,5571.819
2164,5610.43
2165,5714.287
2166,5661.277
2167,5411.656
2168,5329.164
2169,5494.449
2170,5572.608
2171,5461.512
2172,5296.814
2173,5164.815
2174,5106.234
2175,5105.215
2176,5120.833
2177,5112.997
2178,5063.788
2179,5025.062
2180,5002.947
2181,4879.817
2182,4691.285
2183,4702.457
2184,4855.861
2185,4793.8
2186,4589.514
2187,4559.575
2188,4627.291
2189,4599.827
2190,4563.632
2191,4606.735
2192,4590.249
2193,4460.214
2194,4393.466
2195,4422.742
2196,4382.573
2197,4263.791
2198,4182.268
2199,4153.186
2200,4146.283
2201,4180.742
2202,4271.987
2203,4370.258
2204,4410.243
2205,4324.992
2206,4157.458
2207,4079.689
2208,4099.255
2209,4098.549
2210,4084.629
2211,4095.541
2212,4001.666
2213,3734.74
2214,3551.345
2215,3575.563
2216,3604.199
2217,3598.93
2218,3715.198
2219,3864.989
2220,3832.304
2221,3669.471
2222,3523.028
2223,3485.769
2224,3557.239
2225,3568.477
2226,3463.723
2227,3352.447
2228,3261.074
2229,3156.515
2230,3095.403
2231,3126.427
2232,3100.646
2233,2963.1
2234,2975.784
2235,3126.807
2236,3022.714
2237,2751.828
2238,2721.09
2239,2825.815
2240,2820.344
2241,2793.76
2242,2836.159
2243,2873.339
2244,2836.956
2245,2699.496
2246,2553.062
2247,2538.827
2248,2616.568
2249,2677.675
2250,2613.874
2251,2426.244
2252,2294.197
2253,2292.325
2254,2371.283
2255,2398.268
2256,2277.292
2257,2247.117
2258,2438.22
2259,2545.859
2260,2438.499
2261,2259.635
2262,2126.014
2263,2098.03
2264,2080.658
2265,1986.136
2266,1889.09
2267,1876.521
2268,2000.847
2269,2118.139
2270,2004.705
2271,1855.218
2272,1912.183
2273,2066.27
2274,2162.124
2275,2086.353
2276,1895.933
2277,1765.462
2278,1765.114
2279,1867.784
2280,1883.548
2281,1727.095
2282,1523.263
2283,1450.647
2284,1645.24
2285,1800.481
2286,1662.124
2287,1609.26
2288,1770.22
2289,1790.115
2290,1617.658
2291,1424.234
2292,1298.785
2293,1287.353
2294,1398.612
2295,1521.448
2296,1436.67
2297,1189.079
2298,964.4473
2299,882.3495
2300,972.5891
