400,16118.45
401,16062.51
402,15985.11
403,15914.51
404,15881.28
405,15906.57
406,15968.31
407,16031.97
408,16064.99
409,16061.64
410,16036.91
411,16006.17
412,15980.54
413,15962.84
414,15954.98
415,15956.92
416,15958.42
417,15945.89
418,15906.91
419,15848.67
420,15794.96
421,15769.88
422,15782.29
423,15809.11
424,15823.34
425,15803.32
426,15756.97
427,15702.66
428,15658.07
429,15629.75
430,15614.44
431,15608.57
432,15606.86
433,15600.33
434,15579.59
435,15538.64
436,15490.58
437,15455.11
438,15450.45
439,15469.4
440,15482.96
441,15461.72
442,15396.84
443,15321.22
444,15272.67
445,15278.52
446,15311.97
447,15328.68
448,15287.69
449,15196.91
450,15102.77
451,15052.18
452,15063.86
453,15105.39
454,15139.09
455,15134.77
456,15095.38
457,15033.23
458,14960.67
459,14891.34
460,14839.71
461,14819.92
462,14830.48
463,14845.91
464,14838.87
465,14791.23
466,14718.33
467,14643.05
468,14586.09
469,14548.56
470,14520.81
471,14493.35
472,14463.93
473,14439.11
474,14425.91
475,14426.22
476,14427.64
477,14415.41
478,14378.38
479,14329.5
480,14291.65
481,14286.3
482,14309.13
483,14332.22
484,14327.04
485,14281.31
486,14214.86
487,14151.25
488,14109.4
489,14087.42
490,14077.43
491,14071.77
492,14064.65
493,14051.52
494,14027.97
495,13993.67
496,13953.84
497,13914.05
498,13878.38
499,13846.48
500,13817.18
501,13789.45
502,13763.13
503,13738.42
504,13715.44
505,13692.1
506,13664.39
507,13628.3
508,13583.66
509,13537.39
510,13497.16
511,13469.24
512,13454.51
513,13452.44
514,13461.68
515,13472.85
516,13472.19
517,13446.47
518,13396.67
519,13339.48
520,13292.28
521,13263.72
522,13242.83
523,13216.02
524,13174.16
525,13129.66
526,13101.48
527,13105.71
528,13127.44
529,13132.19
530,13086.32
531,12991.24
532,12891.84
533,12835.46
534,12845.17
535,12884.18
536,12906.73
537,12876.95
538,12810.12
539,12738.16
540,12690.74
541,12672.18
542,12670.11
543,12672.11
544,12670.73
545,12664.76
546,12653.4
547,12636.61
548,12616.11
549,12593.93
550,12571.38
551,12546.4
552,12515.89
553,12477.31
554,12434.35
555,12394.53
556,12365.12
557,12346
558,12328.53
559,12303.66
560,12268.04
561,12230.62
562,12201.91
563,12189.1
564,12185.22
565,12179.56
566,12162.63
567,12135.33
568,12103.99
569,12074.83
570,12051.4
571,12034.71
572,12025.64
573,12021.02
574,12010.73
575,11984.01
576,11935.65
577,11878.58
578,11829.36
579,11801.59
580,11790.17
581,11782.68
582,11767.48
583,11742.71
584,11713.54
585,11685.22
586,11660.55
587,11639.21
588,11620.74
589,11604.4
590,11588.97
591,11573.15
592,11555.7
593,11535.66
594,11512.16
595,11484.62
596,11454.94
597,11426.22
598,11401.25
599,11377.98
600,11350.22
601,11311.91
602,11266.02
603,11228.62
604,11216.68
605,11235.75
606,11262.68
607,11270.01
608,11237.76
609,11179.61
610,11118.78
611,11075.84
612,11050.01
613,11029.75
614,11004.22
615,10975.26
616,10955.46
617,10957.32
618,10977.49
619,10990.15
620,10968.01
621,10900.85
622,10819.06
623,10758.8
624,10746
625,10764.78
626,10788.45
627,10793.18
628,10775.14
629,10739.51
630,10691.69
631,10640.47
632,10597.12
633,10572.57
634,10567.47
635,10570.23
636,10568.66
637,10557
638,10541.82
639,10531.04
640,10528.75
641,10526.77
642,10514.5
643,10483.3
644,10434.74
645,10373.86
646,10306.36
647,10244.63
648,10204.66
649,10201.1
650,10224.75
651,10245.75
652,10234.25
653,10184.3
654,10122.12
655,10076.02
656,10061.55
657,10067.41
658,10078.89
659,10083.71
660,10077.57
661,10057.91
662,10023.87
663,9983.965
664,9949.956
665,9932.032
666,9926.419
667,9921.772
668,9907.206
669,9879.805
670,9843.244
671,9801.483
672,9762.055
673,9736.94
674,9738.229
675,9765.093
676,9792.517
677,9792.96
678,9751.77
679,9691.202
680,9640.016
681,9619.316
682,9616.341
683,9608.872
684,9578.323
685,9531.115
686,9484.401
687,9453.95
688,9439.931
689,9432.519
690,9422.07
691,9404.951
692,9383.135
693,9358.828
694,9335.434
695,9317.965
696,9311.492
697,9315.849
698,9320.625
699,9314.272
700,9290.554
701,9258.499
702,9229.837
703,9212.656
704,9199.542
705,9178.938
706,9142.008
707,9097.254
708,9060.021
709,9043.655
710,9042.152
711,9038.497
712,9016.783
713,8979.499
714,8943.889
715,8926.934
716,8929.182
717,8932.853
718,8919.532
719,8885.203
720,8848.06
721,8828.061
722,8834.467
723,8853.554
724,8868.677
725,8867.832
726,8852.968
727,8828.657
728,8799.396
729,8769.39
730,8742.757
731,8722.82
732,8708.141
733,8695.478
734,8681.701
735,8664.55
736,8642.216
737,8613.128
738,8578.615
739,8542.047
740,8506.879
741,8477.856
742,8460.934
743,8461.784
744,8475.834
745,8485.752
746,8473.704
747,8436.498
748,8394.959
749,8371.995
750,8378.261
751,8397.79
752,8411.185
753,8405.453
754,8386.103
755,8361.974
756,8340.311
757,8322.236
758,8307.375
759,8294.821
760,8280.878
761,8260.953
762,8231.508
763,8196.35
764,8162.428
765,8135.831
766,8114.548
767,8092.065
768,8062.56
769,8029.676
770,8003.776
771,7994.532
772,7996.603
773,7991.164
774,7959.761
775,7906.173
776,7859.251
777,7848.554
778,7879.963
779,7925.952
780,7956.758
781,7956.582
782,7934.203
783,7900.86
784,7865.72
785,7833.429
786,7807.999
787,7791.052
788,7777.592
789,7761.505
790,7739.123
791,7715.222
792,7696.393
793,7686.846
794,7680.498
795,7668.48
796,7644.005
797,7611.49
798,7579.123
799,7554.53
800,7541.664
801,7542.947
802,7559.239
803,7578.228
804,7580.965
805,7550.889
806,7496.851
807,7443.131
808,7412.373
809,7403.201
810,7396.846
811,7375.207
812,7337.489
813,7297.731
814,7269.991
815,7259.058
816,7260.39
817,7269.016
818,7278.844
819,7282.449
820,7272.539
821,7249.463
822,7224.065
823,7207.758
824,7202.527
825,7195.329
826,7171.938
827,7128.839
828,7082.29
829,7050.564
830,7042.389
831,7046.173
832,7047.772
833,7038.899
834,7025.619
835,7016.139
836,7014.859
837,7015.431
838,7009.641
839,6992.399
840,6968.715
841,6945.62
842,6927.849
843,6911.635
844,6891.244
845,6863.307
846,6834.375
847,6813.608
848,6806.975
849,6805.293
850,6794.882
851,6766.031
852,6730.257
853,6706.175
854,6708.548
855,6729.112
856,6751.002
857,6759.11
858,6749.921
859,6724.747
860,6685.726
861,6641.213
862,6602.381
863,6578.912
864,6568.181
865,6561.437
866,6550.708
867,6535.438
868,6519.088
869,6505.081
870,6496.12
871,6494.487
872,6501.729
873,6511.235
874,6511.272
875,6491.441
876,6458.263
877,6429.632
878,6422.243
879,6434.713
880,6452.726
881,6462.493
882,6461.158
883,6454.14
884,6446.688
885,6438.379
886,6424.29
887,6399.861
888,6368.666
889,6341.052
890,6326.981
891,6326.298
892,6330.042
893,6329.312
894,6321.27
895,6308.562
896,6294.006
897,6280.189
898,6269.475
899,6263.983
900,6260.914
901,6252.748
902,6232.304
903,6203.538
904,6181.338
905,6180.283
906,6198.438
907,6217.344
908,6218.619
909,6200.983
910,6180.519
911,6173.329
912,6178.837
913,6179.371
914,6157.324
915,6113.996
916,6070.159
917,6046.685
918,6046.769
919,6055.405
920,6057.206
921,6046.691
922,6028.535
923,6007.698
924,5985.233
925,5958.21
926,5923.829
927,5886.26
928,5856.684
929,5846.025
930,5853.292
931,5865.718
932,5870.438
933,5862.435
934,5844.29
935,5818.928
936,5790.221
937,5762.935
938,5741.672
939,5727.521
940,5718.36
941,5712.016
942,5707.443
943,5704.604
944,5703.401
945,5702.166
946,5697.897
947,5687.89
948,5674.835
949,5665.82
950,5667.395
951,5676.386
952,5682.079
953,5674.417
954,5654.842
955,5633.249
956,5619.042
957,5613.06
958,5610.187
959,5605.413
960,5596.199
961,5581.626
962,5561.114
963,5537.403
964,5515.269
965,5498.978
966,5487.667
967,5477.549
968,5465.583
969,5455.616
970,5455.128
971,5469.88
972,5491.552
973,5504.989
974,5497.935
975,5479.502
976,5468.309
977,5479.148
978,5501.515
979,5514.651
980,5501.683
981,5468.695
982,5430.208
983,5398.92
984,5377.949
985,5367.238
986,5366.227
987,5371.978
988,5380.857
989,5388.787
990,5389.767
991,5377.312
992,5348.722
993,5315.424
994,5292.104
995,5288.066
996,5294.988
997,5300.955
998,5297.763
999,5287.875
1000,5275.656
1001,5263.736
1002,5250.36
1003,5233.108
1004,5211.297
1005,5188.103
1006,5167.208
1007,5151.537
1008,5140.549
1009,5132.706
1010,5126.818
1011,5123.069
1012,5121.989
1013,5124.146
1014,5130.263
1015,5141.084
1016,5155.195
1017,5164.723
1018,5160.639
1019,5139.177
1020,5109.954
1021,5084.637
1022,5070.641
1023,5066.185
1024,5068.276
1025,5072.871
1026,5073.97
1027,5065.467
1028,5046.621
1029,5025.081
1030,5009.077
1031,5001.482
1032,4998.099
1033,4994.354
1034,4988.508
1035,4981.959
1036,4976.243
1037,4972.344
1038,4970.739
1039,4971.749
1040,4973.709
1041,4973.42
1042,4967.992
1043,4958.411
1044,4948.127
1045,4940.179
1046,4933.696
1047,4925.785
1048,4914.415
1049,4903.51
1050,4899.465
1051,4906.956
1052,4921.568
1053,4935.894
1054,4943.36
1055,4940.761
1056,4925.771
1057,4899.152
1058,4871.535
1059,4855.474
1060,4857.212
1061,4867.411
1062,4874.43
1063,4871.84
1064,4863.211
1065,4853.222
1066,4845.741
1067,4843.431
1068,4848.727
1069,4860.253
1070,4872.207
1071,4878.831
1072,4879.829
1073,4879.82
1074,4883.255
1075,4890.221
1076,4897.791
1077,4903.296
1078,4906.902
1079,4910.265
1080,4915.153
1081,4924.034
1082,4939.642
1083,4962.203
1084,4980.469
1085,4979.926
1086,4954.005
1087,4922.259
1088,4909.531
1089,4927.275
1090,4955.129
1091,4968.299
1092,4955.34
1093,4927.913
1094,4899.765
1095,4877.601
1096,4859.203
1097,4841.886
1098,4825.067
1099,4810.118
1100,4798.406
1101,4790.405
1102,4785.987
1103,4784.875
1104,4785.705
1105,4786.586
1106,4785.634
1107,4780.981
1108,4770.77
1109,4755.015
1110,4740.578
1111,4735.85
1112,4744.192
1113,4756.517
1114,4761.928
1115,4755.732
1116,4743.82
1117,4732.991
1118,4726.05
1119,4721.058
1120,4715.854
1121,4709.234
1122,4700.787
1123,4690.261
1124,4678.779
1125,4668.242
1126,4659.94
1127,4651.347
1128,4638.485
1129,4619.16
1130,4598.23
1131,4582.279
1132,4573.069
1133,4560.04
1134,4530.879
1135,4486.49
1136,4449.968
1137,4445.646
1138,4473.269
1139,4505.072
1140,4513.925
1141,4502.108
1142,4493.808
1143,4509.701
1144,4537.854
1145,4550.493
1146,4527.032
1147,4482.666
1148,4443.548
1149,4428.269
1150,4432.611
1151,4448.063
1152,4464.926
1153,4471.251
1154,4455.301
1155,4420.419
1156,4388.153
1157,4379.583
1158,4392.536
1159,4406.849
1160,4404.966
1161,4394.214
1162,4394.015
1163,4417.365
1164,4446.683
1165,4455.421
1166,4430.23
1167,4394.381
1168,4377.195
1169,4389.89
1170,4413.262
1171,4425.828
1172,4421.638
1173,4410.854
1174,4403.845
1175,4404.781
1176,4413.869
1177,4429.901
1178,4443.346
1179,4441.506
1180,4416.102
1181,4374.236
1182,4326.35
1183,4283.135
1184,4255.774
1185,4255.017
1186,4275.617
1187,4293.278
1188,4284.693
1189,4254.596
1190,4227.684
1191,4225.29
1192,4243.176
1193,4266.53
1194,4282.586
1195,4286.159
1196,4273.831
1197,4247.106
1198,4217.482
1199,4197.428
1200,4191.828
1201,4196.708
1202,4207.44
1203,4217.489
1204,4219.027
1205,4206.424
1206,4187.639
1207,4175.772
1208,4179.101
1209,4190.374
1210,4199.294
1211,4201.24
1212,4201.496
1213,4206.053
1214,4214.443
1215,4219.862
1216,4216.279
1217,4207.462
1218,4202.536
1219,4208.093
1220,4218.723
1221,4225.549
1222,4223.214
1223,4214.773
1224,4204.451
1225,4194.349
1226,4183.84
1227,4172.457
1228,4164.24
1229,4166.395
1230,4183.292
1231,4201.886
1232,4202.677
1233,4176.307
1234,4143.473
1235,4130.09
1236,4143.048
1237,4160.166
1238,4158.33
1239,4139.465
1240,4125.9
1241,4136.14
1242,4157.982
1243,4166.22
1244,4145.319
1245,4111.799
1246,4088.613
1247,4086.394
1248,4095.523
1249,4104.885
1250,4110.298
1251,4113.498
1252,4116.2
1253,4118.602
1254,4120.25
1255,4121.521
1256,4125.534
1257,4135.87
1258,4149.584
1259,4153.326
1260,4134.206
1261,4102.1
1262,4085.301
1263,4106.38
1264,4147.309
1265,4173.902
1266,4165.465
1267,4140.922
1268,4126.054
1269,4129.757
1270,4137.264
1271,4133.485
1272,4122.107
1273,4119.846
1274,4138.877
1275,4166.112
1276,4180.228
1277,4170.714
1278,4152.416
1279,4143.316
1280,4147.102
1281,4151.511
1282,4144.881
1283,4128.807
1284,4111.982
1285,4102.035
1286,4102.238
1287,4114.762
1288,4136.431
1289,4154.965
1290,4158.002
1291,4146.463
1292,4131.967
1293,4124.611
1294,4123.576
1295,4124.034
1296,4122.935
1297,4121.717
1298,4122.437
1299,4124.93
1300,4126.515
1301,4124.643
1302,4119.198
1303,4111.336
1304,4102.616
1305,4095.962
1306,4094.535
1307,4097.556
1308,4098.249
1309,4090.247
1310,4078.885
1311,4077.58
1312,4095.139
1313,4117.825
1314,4125.352
1315,4110.841
1316,4093.388
1317,4093.786
1318,4109.68
1319,4118.9
1320,4104.484
1321,4084.326
1322,4089.076
1323,4130.684
1324,4177.276
1325,4192.104
1326,4172.143
1327,4148.219
1328,4148.416
1329,4170.724
1330,4200.252
1331,4225.649
1332,4245.222
1333,4258.877
1334,4266.799
1335,4269.479
1336,4267.341
1337,4260.148
1338,4247.36
1339,4230.034
1340,4213.849
1341,4205.156
1342,4205.143
1343,4208.952
1344,4212.234
1345,4217.599
1346,4231.028
1347,4252.744
1348,4266.081
1349,4251.929
1350,4211.525
1351,4169.757
1352,4150.218
1353,4155.374
1354,4177.716
1355,4208.868
1356,4238.256
1357,4255.223
1358,4257.857
1359,4253.826
1360,4250.518
1361,4249.813
1362,4251.201
1363,4253.06
1364,4251.035
1365,4240.728
1366,4226.237
1367,4219.942
1368,4231.747
1369,4254.352
1370,4274.026
1371,4282.935
1372,4285.785
1373,4288.59
1374,4292.319
1375,4293.8
1376,4291.326
1377,4290.901
1378,4300.78
1379,4321.081
1380,4338.065
1381,4338.009
1382,4323.779
1383,4309.078
1384,4304.45
1385,4308.099
1386,4315.371
1387,4320.565
1388,4316.626
1389,4298.202
1390,4274.737
1391,4262.886
1392,4270.623
1393,4283.033
1394,4282.235
1395,4266.406
1396,4248.967
1397,4241.203
1398,4239.362
1399,4234.673
1400,4224.647
1401,4218.076
1402,4223.643
1403,4234.672
1404,4234.459
1405,4214.36
1406,4194.291
1407,4199.616
1408,4230.658
1409,4258.133
1410,4256.23
1411,4234.902
1412,4218.942
1413,4221.598
1414,4231.487
1415,4235.092
1416,4233.614
1417,4239.19
1418,4259.595
1419,4284.613
1420,4299.881
1421,4300.152
1422,4291.704
1423,4280.867
1424,4268.896
1425,4254.869
1426,4241.415
1427,4238.745
1428,4256.625
1429,4284.909
1430,4298.978
1431,4282.805
1432,4253.047
1433,4233.37
1434,4232.311
1435,4240.797
1436,4249.642
1437,4255.301
1438,4256.402
1439,4253.298
1440,4249.52
1441,4248.526
1442,4249.315
1443,4248.165
1444,4243.146
1445,4237.617
1446,4235.725
1447,4238.028
1448,4241.785
1449,4245.139
1450,4250.83
1451,4262.765
1452,4278.546
1453,4287.231
1454,4279.769
1455,4265.054
1456,4259.674
1457,4270.923
1458,4287.695
1459,4297.615
1460,4298.413
1461,4294.123
1462,4288.731
1463,4285.792
1464,4288.43
1465,4293.251
1466,4291.205
1467,4277.193
1468,4262.945
1469,4264.05
1470,4282.293
1471,4303.268
1472,4314.5
1473,4319.973
1474,4329.322
1475,4343.326
1476,4348.994
1477,4335.15
1478,4314.404
1479,4310.46
1480,4331.087
1481,4351.655
1482,4346.636
1483,4323.5
1484,4309.697
1485,4322.146
1486,4349.628
1487,4376.73
1488,4393.016
1489,4391.794
1490,4370.016
1491,4336.229
1492,4301.216
1493,4272.666
1494,4255.422
1495,4253.794
1496,4270.27
1497,4306.292
1498,4347.219
1499,4360.91
1500,4325.682
1501,4274.763
1502,4256.938
1503,4283.359
1504,4317.746
1505,4327.117
1506,4314.672
1507,4296.148
1508,4282.83
1509,4279.609
1510,4289.198
1511,4303.388
1512,4309.778
1513,4304.798
1514,4298.795
1515,4301.94
1516,4314.194
1517,4331.088
1518,4347.416
1519,4356.768
1520,4354.082
1521,4345.67
1522,4343.046
1523,4350.27
1524,4357.999
1525,4357.034
1526,4350.793
1527,4348.74
1528,4356.713
1529,4373.784
1530,4397.519
1531,4419.197
1532,4427.056
1533,4415.146
1534,4388.305
1535,4354.133
1536,4332.902
1537,4350.793
1538,4406.933
1539,4451.604
1540,4438.25
1541,4385.861
1542,4343.87
1543,4340.67
1544,4368.036
1545,4412.642
1546,4450.674
1547,4454.009
1548,4419.428
1549,4383.658
1550,4380.551
1551,4400.688
1552,4417.49
1553,4419.418
1554,4416.968
1555,4420.11
1556,4425.519
1557,4425.322
1558,4420.91
1559,4425.66
1560,4448.296
1561,4470.199
1562,4465.181
1563,4435.52
1564,4415.541
1565,4430.473
1566,4459.983
1567,4473.041
1568,4465.881
1569,4460.784
1570,4473.152
1571,4491.135
1572,4498.022
1573,4492.669
1574,4486.252
1575,4487.523
1576,4497.605
1577,4515.774
1578,4534.846
1579,4543.56
1580,4541.111
1581,4549.263
1582,4588.234
1583,4640.12
1584,4668.237
1585,4660.536
1586,4646.042
1587,4651.931
1588,4669.766
1589,4678.139
1590,4674.815
1591,4681.721
1592,4714.73
1593,4756.041
1594,4779.265
1595,4773.604
1596,4742.875
1597,4697.897
1598,4669.368
1599,4688.473
1600,4742.78
1601,4790.229
1602,4804.602
1603,4795.394
1604,4776.799
1605,4762.95
1606,4767.799
1607,4794.244
1608,4828.595
1609,4858.34
1610,4884.229
1611,4910.934
1612,4935.29
1613,4946.086
1614,4938.408
1615,4929.266
1616,4938.096
1617,4957.17
1618,4960.185
1619,4933.634
1620,4891.63
1621,4850.89
1622,4821.468
1623,4810.196
1624,4810.713
1625,4799.091
1626,4758.973
1627,4711.952
1628,4688.066
1629,4686.33
1630,4679.667
1631,4654.198
1632,4631.479
1633,4635.085
1634,4657.776
1635,4676.568
1636,4675.164
1637,4647.527
1638,4594.52
1639,4545.605
1640,4536.854
1641,4567.517
1642,4604.052
1643,4621.969
1644,4623.44
1645,4614.467
1646,4597.24
1647,4572.163
1648,4547.295
1649,4541.802
1650,4566.802
1651,4593.942
1652,4586.593
1653,4552.008
1654,4533.074
1655,4553.874
1656,4593.153
1657,4625.387
1658,4640.15
1659,4633.924
1660,4614.624
1661,4603.971
1662,4615.959
1663,4634.667
1664,4639.54
1665,4632.09
1666,4627.859
1667,4635.021
1668,4648.628
1669,4661.662
1670,4663.282
1671,4642.35
1672,4605.06
1673,4572.778
1674,4562.569
1675,4580.065
1676,4625.474
1677,4672.403
1678,4684.209
1679,4660.115
1680,4640.059
1681,4651.484
1682,4676.647
1683,4691.151
1684,4689.39
1685,4676.013
1686,4659.18
1687,4651.788
1688,4660.433
1689,4666.443
1690,4647.688
1691,4612.265
1692,4587.707
1693,4590.269
1694,4617.226
1695,4660.361
1696,4695.021
1697,4694.536
1698,4668.519
1699,4652.88
1700,4662.15
1701,4671.012
1702,4658.489
1703,4645.496
1704,4662.627
1705,4692.78
1706,4681.967
1707,4619.78
1708,4580.703
1709,4625.275
1710,4694.381
1711,4697.359
1712,4643.091
1713,4618.896
1714,4664.221
1715,4723.406
1716,4743.727
1717,4740.25
1718,4746.48
1719,4759.508
1720,4748.962
1721,4710.358
1722,4686.834
1723,4711.727
1724,4750.931
1725,4754.652
1726,4718.769
1727,4670.903
1728,4636.312
1729,4635.348
1730,4675.748
1731,4717.258
1732,4713.292
1733,4676.494
1734,4654.552
1735,4668.04
1736,4699.872
1737,4732.37
1738,4754.823
1739,4760.193
1740,4760.515
1741,4776.085
1742,4795.77
1743,4773.825
1744,4697.732
1745,4642.282
1746,4676.842
1747,4754.751
1748,4789.464
1749,4763.177
1750,4716.328
1751,4683.729
1752,4686.235
1753,4732.28
1754,4783.062
1755,4791.886
1756,4766.287
1757,4746.683
1758,4752.713
1759,4775.989
1760,4803.699
1761,4815.871
1762,4796.479
1763,4765.715
1764,4757.544
1765,4778.545
1766,4810.704
1767,4834.683
1768,4830.388
1769,4787.786
1770,4739.496
1771,4724.92
1772,4738.369
1773,4749.071
1774,4754.315
1775,4784.908
1776,4845.748
1777,4873.054
1778,4813.096
1779,4725.276
1780,4700.242
1781,4727.942
1782,4727.909
1783,4692.833
1784,4722.132
1785,4863.67
1786,4988.304
1787,4963.034
1788,4843.726
1789,4756.247
1790,4739.26
1791,4761.203
1792,4792.829
1793,4811.751
1794,4803.491
1795,4777.23
1796,4747.702
1797,4734.909
1798,4758.937
1799,4803.353
1800,4822.038
1801,4802.82
1802,4788.702
1803,4805.51
1804,4809.535
1805,4759.472
1806,4719.616
1807,4786.852
1808,4906.037
1809,4907.039
1810,4769.459
1811,4694.119
1812,4799.456
1813,4925.878
1814,4906.129
1815,4800.88
1816,4741.92
1817,4760.821
1818,4822.654
1819,4887.029
1820,4908.567
1821,4871.447
1822,4826.677
1823,4817.79
1824,4816.363
1825,4781.595
1826,4734.435
1827,4725.639
1828,4767.272
1829,4835.303
1830,4900.002
1831,4924.597
1832,4888.096
1833,4819.364
1834,4757.23
1835,4743.127
1836,4811.941
1837,4910.709
1838,4933.313
1839,4871.271
1840,4825.851
1841,4850.028
1842,4891.35
1843,4898.312
1844,4865.779
1845,4802.66
1846,4743.215
1847,4729.188
1848,4766.648
1849,4836.307
1850,4902.122
1851,4909.353
1852,4844.411
1853,4777.636
1854,4765.201
1855,4779.138
1856,4779.87
1857,4769.666
1858,4765.324
1859,4765.494
1860,4757.915
1861,4753.69
1862,4788.634
1863,4860.925
1864,4900.85
1865,4865.975
1866,4814.282
1867,4806.522
1868,4824.155
1869,4828.867
1870,4829.128
1871,4855.444
1872,4894.128
1873,4895.028
1874,4851.927
1875,4818.774
1876,4823.954
1877,4832.136
1878,4813.797
1879,4788.706
1880,4782.609
1881,4792.937
1882,4807.736
1883,4823.67
1884,4842.073
1885,4858.707
1886,4864.577
1887,4862.673
1888,4872.505
1889,4896.751
1890,4900.05
1891,4861.541
1892,4824.769
1893,4833.219
1894,4858.405
1895,4853.039
1896,4814.091
1897,4761.393
1898,4717.143
1899,4704.625
1900,4728.545
1901,4772.305
1902,4814.793
1903,4829.371
1904,4805.71
1905,4776.092
1906,4769.011
1907,4772.635
1908,4769.619
1909,4767.369
1910,4779.394
1911,4792.048
1912,4779.527
1913,4754.55
1914,4758.212
1915,4783.417
1916,4769.638
1917,4706.979
1918,4669.459
1919,4701.647
1920,4765.147
1921,4818.933
1922,4850.555
1923,4851.028
1924,4800.665
1925,4691.461
1926,4618.784
1927,4702.231
1928,4853.122
1929,4870.833
1930,4756.809
1931,4675.116
1932,4675.538
1933,4676.176
1934,4650.129
1935,4663.772
1936,4744.012
1937,4820.64
1938,4837.212
1939,4810.096
1940,4767.32
1941,4732.612
1942,4722.88
1943,4723.55
1944,4714.012
1945,4707.374
1946,4728.359
1947,4763.223
1948,4776.176
1949,4748.255
1950,4675.177
1951,4582.437
1952,4524.619
1953,4526.766
1954,4573.376
1955,4635.477
1956,4666.268
1957,4644.805
1958,4609.927
1959,4598.388
1960,4619.076
1961,4665.064
1962,4689.688
1963,4653.522
1964,4593.761
1965,4560.035
1966,4540.854
1967,4509.094
1968,4494.393
1969,4544.52
1970,4618.125
1971,4628.792
1972,4590.297
1973,4585.334
1974,4625.823
1975,4661.186
1976,4669.76
1977,4662.806
1978,4645.081
1979,4611.17
1980,4569.201
1981,4548.963
1982,4560.563
1983,4574.351
1984,4568.948
1985,4550.82
1986,4536.138
1987,4556.777
1988,4624.11
1989,4676.916
1990,4658.857
1991,4585.679
1992,4495.418
1993,4449.83
1994,4496.133
1995,4570.595
1996,4587.827
1997,4551.997
1998,4501.926
1999,4481.603
2000,4526.974
2001,4587.179
2002,4578.229
2003,4516.977
2004,4472.329
2005,4453.719
2006,4434.971
2007,4424.928
2008,4454.232
2009,4498.655
2010,4494.292
2011,4451.277
2012,4442.455
2013,4481.1
2014,4522.685
2015,4551.825
2016,4584.737
2017,4602.471
2018,4546.842
2019,4434.897
2020,4375.861
2021,4389.08
2022,4370.516
2023,4300.705
2024,4289.007
2025,4372.472
2026,4466.435
2027,4501.873
2028,4450.915
2029,4346.19
2030,4313.246
2031,4388.824
2032,4441.569
2033,4398.612
2034,4322.4
2035,4266.524
2036,4241.615
2037,4245.839
2038,4262.4
2039,4273.484
2040,4262.828
2041,4234.894
2042,4234.731
2043,4267.167
2044,4246.932
2045,4157.213
2046,4140.931
2047,4251.582
2048,4323.152
2049,4261.379
2050,4169.591
2051,4121.003
2052,4081.98
2053,4039.817
2054,4046.837
2055,4109.142
2056,4130.907
2057,4079.823
2058,4062.03
2059,4119.233
2060,4151.331
2061,4110.186
2062,4062.291
2063,4045.626
2064,4032.664
2065,4005.633
2066,3971.799
2067,3948.63
2068,3964.757
2069,4016.792
2070,4055.869
2071,4049.803
2072,3993.901
2073,3926.038
2074,3930.368
2075,3999.35
2076,4022.337
2077,3970.25
2078,3904.617
2079,3890.093
2080,3983.152
2081,4111.367
2082,4101.859
2083,3955.76
2084,3809.644
2085,3743.878
2086,3786.461
2087,3852.019
2088,3802.702
2089,3685.396
2090,3637.065
2091,3671.097
2092,3741.377
2093,3820.404
2094,3883.096
2095,3869.029
2096,3737.248
2097,3618.623
2098,3647.334
2099,3723.077
2100,3719.688
2101,3658.652
2102,3592.681
2103,3563.581
2104,3584.946
2105,3601.254
2106,3589.095
2107,3620.955
2108,3701.845
2109,3689.366
2110,3575.099
2111,3578.806
2112,3711.442
2113,3696.455
2114,3510.573
2115,3414.277
2116,3460.732
2117,3512.009
2118,3529.576
2119,3547.47
2120,3541.116
2121,3467.456
2122,3426.637
2123,3542.963
2124,3655.931
2125,3563.719
2126,3399.892
2127,3346.409
2128,3383.094
2129,3442.481
2130,3458.258
2131,3399.451
2132,3314.711
2133,3255.394
2134,3257.063
2135,3302.976
2136,3309.66
2137,3270.33
2138,3261.197
2139,3284.678
2140,3282.431
2141,3242.628
2142,3186.15
2143,3147.796
2144,3153.377
2145,3137.648
2146,3039.046
2147,2953.056
2148,2970.927
2149,3040.668
2150,3093.18
2151,3084.041
2152,3012.841
2153,2945.914
2154,2913.32
2155,2893.316
2156,2881.41
2157,2890.433
2158,2916.249
2159,2940.944
2160,2931.003
2161,2860.458
2162,2786.612
2163,2771.492
2164,2785.416
2165,2778.57
2166,2706.655
2167,2596.735
2168,2602.141
2169,2728.914
2170,2779.933
2171,2703.92
2172,2596.058
2173,2532.683
2174,2557.897
2175,2593.953
2176,2542.251
2177,2469.182
2178,2465.919
2179,2542.232
2180,2652.143
2181,2667.567
2182,2554.11
2183,2426.044
2184,2356.661
2185,2359.109
2186,2344.991
2187,2197.438
2188,2076.624
2189,2187.149
2190,2370.169
2191,2433.141
2192,2388.843
2193,2294.184
2194,2218.714
2195,2208.479
2196,2271.658
2197,2300.288
2198,2133.389
2199,1958.449
2200,2053.131
2201,2196.948
2202,2128.892
2203,1988.88
2204,1936.185
2205,2004.343
2206,2103.541
2207,2025.701
2208,1866.885
2209,1922.581
2210,2037.309
2211,1919.58
2212,1751.011
2213,1744.936
2214,1785.366
2215,1799.263
2216,1886.612
2217,2007.013
2218,1970.516
2219,1842.184
2220,1821.796
2221,1844.045
2222,1787.157
2223,1716.421
2224,1700.855
2225,1725.217
2226,1748.96
2227,1719.451
2228,1677.52
2229,1714.364
2230,1759.769
2231,1722.517
2232,1722.463
2233,1801.963
2234,1714.982
2235,1454.837
2236,1358.787
2237,1467.904
2238,1591.941
2239,1640.336
2240,1594.844
2241,1536.442
2242,1535.913
2243,1591.483
2244,1637.737
2245,1558.016
2246,1397.668
2247,1288.016
2248,1207.441
2249,1131.599
2250,1204.214
2251,1407.16
2252,1412.524
2253,1230.135
2254,1177.249
2255,1245.289
2256,1280.501
2257,1258.397
2258,1215.687
2259,1242.833
2260,1312.845
2261,1266.872
2262,1149.579
2263,1112.562
2264,1137.067
2265,1153.151
2266,1112.765
2267,1035.451
2268,1022.037
2269,1048.393
2270,1012.388
2271,943.2666
2272,900.2922
2273,876.4232
2274,867.9385
2275,892.3666
2276,922.0928
2277,906.0471
2278,885.8095
2279,914.0831
2280,960.5597
2281,971.0231
2282,888.4124
2283,794.3607
2284,838.1682
2285,914.1523
2286,883.6481
2287,798.7629
2288,737.2615
2289,755.5458
2290,784.4423
2291,707.5215
2292,622.1446
2293,630.5112
2294,670.9651
2295,687.9999
2296,668.9167
2297,668.1306
2298,733.7363
2299,730.111
2300,617.636
