400,49873.27
401,49815.31
402,49759.76
403,49715.19
404,49690.44
405,49690.23
406,49700.36
407,49701.23
408,49674.66
409,49622.61
410,49562.56
411,49512.21
412,49480.21
413,49457.77
414,49434.17
415,49400.76
416,49359.79
417,49317.13
418,49278.49
419,49246.81
420,49222.74
421,49206.79
422,49193.29
423,49163.45
424,49096.91
425,48980.89
426,48844.93
427,48733.37
428,48688.06
429,48707.13
430,48750.34
431,48776.37
432,48758.73
433,48702.22
434,48615.59
435,48508.27
436,48393.37
437,48285.2
438,48197.28
439,48128.86
440,48067.02
441,47998.55
442,47915.5
443,47820.54
444,47717.63
445,47610.27
446,47499.78
447,47386.71
448,47271.9
449,47159.96
450,47058.58
451,46975.38
452,46912.52
453,46862.2
454,46815.62
455,46763.5
456,46694.39
457,46596.26
458,46459.24
459,46300.04
460,46153.3
461,46053.41
462,46006.84
463,45977.55
464,45925.98
465,45827.72
466,45712.81
467,45623.64
468,45595.95
469,45604.89
470,45592.4
471,45501.83
472,45326.1
473,45118.45
474,44935.43
475,44817.18
476,44758.75
477,44747.55
478,44768.02
479,44784.16
480,44751.67
481,44629.44
482,44435.57
483,44242.34
484,44123.29
485,44107.06
486,44133.38
487,44131.75
488,44048.2
489,43903.4
490,43739.46
491,43596.02
492,43486.06
493,43405.32
494,43349.21
495,43309.56
496,43273.29
497,43227.05
498,43160.99
499,43075.52
500,42972.98
501,42856.3
502,42732.72
503,42611.33
504,42501.11
505,42410.83
506,42348.99
507,42323.92
508,42330.38
509,42338.15
510,42314.45
511,42236.93
512,42124.95
513,42008.28
514,41913.41
515,41837.25
516,41760.54
517,41664.5
518,41546.67
519,41422.6
520,41308.65
521,41216.68
522,41148.45
523,41104.28
524,41080.63
525,41054.91
526,40998.8
527,40887.37
528,40732.49
529,40569.28
530,40432.41
531,40333.96
532,40258.19
533,40187.61
534,40109.16
535,40020.46
536,39920.78
537,39810.71
538,39697.61
539,39591.05
540,39499.71
541,39422.59
542,39352.25
543,39281.43
544,39211.41
545,39154.17
546,39122.29
547,39119.14
548,39125.59
549,39119.2
550,39081.51
551,39013.71
552,38923.14
553,38817.28
554,38705.4
555,38597.88
556,38504.74
557,38426.69
558,38353.65
559,38275.07
560,38187.82
561,38104.93
562,38041.46
563,38005.1
564,37972.18
565,37910.71
566,37793.63
567,37636.27
568,37476
569,37349.14
570,37270.24
571,37233.02
572,37230.32
573,37249.24
574,37266.77
575,37259.04
576,37208.09
577,37115.23
578,36985.68
579,36826.9
580,36660.99
581,36515.73
582,36416.54
583,36359.13
584,36317.84
585,36267.25
586,36201.48
587,36139.38
588,36101.23
589,36090.28
590,36071.24
591,36003.71
592,35862.3
593,35684.15
594,35522.72
595,35424.6
596,35382.86
597,35364.8
598,35338.82
599,35292.81
600,35231.05
601,35158.3
602,35077.47
603,34988.95
604,34892.88
605,34792.54
606,34699.05
607,34624.69
608,34577.16
609,34543.35
610,34504.29
611,34443.22
612,34361.35
613,34268.91
614,34176.21
615,34094.3
616,34034.85
617,34009.1
618,34008.2
619,33995.11
620,33930.85
621,33802.36
622,33657.85
623,33554.26
624,33529.38
625,33542
626,33530.71
627,33444.32
628,33305.6
629,33170.28
630,33090.29
631,33065.23
632,33056.17
633,33024.13
634,32953.11
635,32854.36
636,32740.65
637,32625.1
638,32521.62
639,32444.13
640,32398.21
641,32362.92
642,32312.1
643,32225.41
644,32113.5
645,31997.44
646,31897.33
647,31825.2
648,31788.6
649,31793.9
650,31827.93
651,31860.53
652,31861.55
653,31817.51
654,31737.41
655,31631.82
656,31513.9
657,31402.37
658,31316.61
659,31267.55
660,31237.68
661,31203.49
662,31145.98
663,31070.69
664,30991.6
665,30921.62
666,30863.87
667,30816.21
668,30775.98
669,30733.11
670,30671.42
671,30575.18
672,30449.8
673,30326.94
674,30239.55
675,30200.21
676,30183.48
677,30159.81
678,30106.66
679,30021.32
680,29904.64
681,29762.64
682,29624.66
683,29526.49
684,29496.03
685,29506.69
686,29508.5
687,29456.13
688,29356.38
689,29249.38
690,29174.11
691,29137.91
692,29118.61
693,29093.29
694,29049.75
695,28990.18
696,28917.83
697,28834.57
698,28739.77
699,28632.45
700,28518.51
701,28423.54
702,28376.58
703,28395.06
704,28446.74
705,28486.14
706,28474.06
707,28410.6
708,28311.47
709,28192.91
710,28076.89
711,27988.56
712,27950.84
713,27951.86
714,27951.92
715,27911.96
716,27827.95
717,27734.86
718,27669.14
719,27642.61
720,27629.09
721,27599.33
722,27536.2
723,27448.52
724,27348.48
725,27249.8
726,27171.06
727,27131.71
728,27141.44
729,27168.15
730,27168.56
731,27108.41
732,27007.54
733,26906.27
734,26839.9
735,26800.79
736,26758.88
737,26686.8
738,26592.79
739,26510.13
740,26470.54
741,26466.1
742,26451.76
743,26382.51
744,26258.45
745,26135.63
746,26072.73
747,26086.11
748,26122.59
749,26123
750,26061.03
751,25981.92
752,25940.11
753,25962.63
754,25996.93
755,25976.29
756,25858.67
757,25697.9
758,25571.06
759,25536.05
760,25551.83
761,25545.14
762,25455.52
763,25310.61
764,25175.85
765,25109.57
766,25103.18
767,25110.88
768,25089.3
769,25030.18
770,24950.14
771,24866.08
772,24791.26
773,24735.68
774,24708.46
775,24698.87
776,24673.79
777,24599.75
778,24477.36
779,24355.38
780,24285.53
781,24284.03
782,24304.47
783,24294.39
784,24229.14
785,24145.3
786,24087.44
787,24079.96
788,24091.7
789,24082.06
790,24022.76
791,23928.06
792,23821.4
793,23724.44
794,23651.56
795,23615.08
796,23620.45
797,23635.76
798,23616.53
799,23527.84
800,23398.67
801,23284.59
802,23233.79
803,23233.09
804,23238.34
805,23208.92
806,23143.21
807,23063.32
808,22990.69
809,22935.06
810,22897.58
811,22878.4
812,22862.77
813,22823.2
814,22733.42
815,22603
816,22477.6
817,22403.03
818,22386.68
819,22390.62
820,22374.99
821,22321.16
822,22239.64
823,22143.04
824,22048.51
825,21980.33
826,21963.09
827,21996.84
828,22036.28
829,22031.57
830,21962.16
831,21869.95
832,21804.63
833,21791.59
834,21796.6
835,21776.61
836,21705.78
837,21607.04
838,21511.74
839,21442.71
840,21395.34
841,21359.38
842,21326.1
843,21291.86
844,21254.23
845,21212
846,21168.93
847,21130.08
848,21098.24
849,21065.21
850,21019.56
851,20953.98
852,20883.18
853,20829.27
854,20809.26
855,20809.59
856,20805.32
857,20775.25
858,20723.05
859,20662.67
860,20606.62
861,20556.62
862,20509.4
863,20461.99
864,20413.73
865,20365.11
866,20316.71
867,20269.71
868,20225.69
869,20186.02
870,20150.9
871,20119.8
872,20092.09
873,20066.44
874,20041.02
875,20014.04
876,19983.9
877,19949.13
878,19908.71
879,19867.12
880,19832.84
881,19813.61
882,19805.66
883,19796.54
884,19774.4
885,19739.62
886,19702.3
887,19672.09
888,19646.63
889,19613.53
890,19561.09
891,19494.33
892,19432.81
893,19395.43
894,19380.6
895,19368.24
896,19338.82
897,19296.8
898,19268.92
899,19281.01
900,19322.44
901,19347.63
902,19311.96
903,19219.83
904,19123.78
905,19076.29
906,19086.69
907,19121.02
908,19144.44
909,19141.54
910,19116.63
911,19074.85
912,19020.26
913,18955.85
914,18884.76
915,18815.54
916,18762.35
917,18738.58
918,18734.19
919,18714.97
920,18647.33
921,18536.35
922,18426.84
923,18363.58
924,18351.73
925,18356.07
926,18340.71
927,18293.62
928,18226.71
929,18152.8
930,18082.66
931,18024.99
932,17987.85
933,17967.82
934,17950.44
935,17921.31
936,17877.26
937,17825.63
938,17774.01
939,17727.39
940,17688.4
941,17659.39
942,17638.73
943,17621.39
944,17602.4
945,17580.38
946,17557.05
947,17534.15
948,17512.79
949,17493.51
950,17476.58
951,17457.16
952,17426.57
953,17377.41
954,17321.68
955,17285.63
956,17292.64
957,17325.4
958,17338.38
959,17290.45
960,17198.33
961,17116.5
962,17094.41
963,17121.7
964,17151.43
965,17140.65
966,17089.55
967,17022.87
968,16963.8
969,16919.49
970,16888.62
971,16869.64
972,16859.62
973,16854.98
974,16852.35
975,16849.83
976,16846.16
977,16839.9
978,16828.21
979,16807.72
980,16776.17
981,16738.13
982,16700.63
983,16668.96
984,16639.1
985,16604
986,16559.69
987,16516.88
988,16490.62
989,16490.52
990,16503.34
991,16509.85
992,16495.6
993,16463.85
994,16421.97
995,16375.95
996,16327.17
997,16276.09
998,16224.14
999,16175.59
1000,16135.21
1001,16104.45
1002,16076.34
1003,16042.67
1004,16001.05
1005,15962.02
1006,15937.83
1007,15935.98
1008,15942.28
1009,15936.32
1010,15904.74
1011,15862.33
1012,15830.87
1013,15824.62
1014,15831.83
1015,15835.17
1016,15822.12
1017,15794.35
1018,15756.19
1019,15713.67
1020,15677.26
1021,15658.07
1022,15657.3
1023,15654.72
1024,15627.48
1025,15570.29
1026,15510.18
1027,15477.24
1028,15479.73
1029,15491.84
1030,15485.33
1031,15453.08
1032,15415.82
1033,15395.43
1034,15392.85
1035,15385.78
1036,15352.1
1037,15296.87
1038,15250.42
1039,15241.74
1040,15266.14
1041,15292.97
1042,15293.3
1043,15264.67
1044,15221.46
1045,15177.94
1046,15145.29
1047,15133.09
1048,15147.45
1049,15170.98
1050,15176.54
1051,15143.18
1052,15082.7
1053,15017.65
1054,14967.73
1055,14940.97
1056,14942.41
1057,14971.99
1058,15013.57
1059,15047.81
1060,15060.54
1061,15050.18
1062,15017.14
1063,14969.44
1064,14929.66
1065,14921.54
1066,14944.18
1067,14959.86
1068,14929.37
1069,14857.72
1070,14801.33
1071,14816.19
1072,14896.34
1073,14980.06
1074,15008.58
1075,14985.1
1076,14955.76
1077,14962.06
1078,14997.41
1079,15029.96
1080,15034.38
1081,15027.73
1082,15043.72
1083,15105.47
1084,15187.8
1085,15251.78
1086,15270.08
1087,15253.74
1088,15221.56
1089,15187.8
1090,15155.87
1091,15127.55
1092,15101.99
1093,15073.77
1094,15037.13
1095,14991.71
1096,14943.89
1097,14900.3
1098,14863.05
1099,14830.15
1100,14799.29
1101,14766.61
1102,14727.21
1103,14678
1104,14630.35
1105,14602.61
1106,14607.18
1107,14624.32
1108,14623.59
1109,14587.26
1110,14544.05
1111,14533.1
1112,14569.41
1113,14608.21
1114,14596.17
1115,14520.12
1116,14435.51
1117,14402.91
1118,14434.23
1119,14483.55
1120,14503.78
1121,14483.96
1122,14442.99
1123,14399.46
1124,14360.06
1125,14324.75
1126,14292.87
1127,14260.4
1128,14222.06
1129,14174.39
1130,14121.11
1131,14067.7
1132,14017.53
1133,13968.5
1134,13917.76
1135,13867.22
1136,13826.8
1137,13806.78
1138,13805.36
1139,13807.22
1140,13797.42
1141,13776.1
1142,13754.65
1143,13743.55
1144,13743.78
1145,13751.71
1146,13763.02
1147,13770.26
1148,13764.99
1149,13743.18
1150,13714.05
1151,13689.28
1152,13672.62
1153,13652.99
1154,13618.06
1155,13569.7
1156,13526.86
1157,13508.18
1158,13512.01
1159,13521.03
1160,13519.4
1161,13506.6
1162,13489.54
1163,13474.78
1164,13466.96
1165,13470.18
1166,13487.24
1167,13517.37
1168,13559.08
1169,13604.73
1170,13636.25
1171,13635.38
1172,13603.7
1173,13563.41
1174,13535.99
1175,13523.93
1176,13517.63
1177,13507.61
1178,13486.62
1179,13448.25
1180,13390.81
1181,13329.04
1182,13281.2
1183,13256.72
1184,13247.4
1185,13242.98
1186,13233.95
1187,13211.78
1188,13169.32
1189,13117.19
1190,13078.68
1191,13072.42
1192,13083.53
1193,13083.3
1194,13051.35
1195,12997.79
1196,12939.67
1197,12893.15
1198,12872.48
1199,12890.93
1200,12937.08
1201,12970.72
1202,12953.91
1203,12896.99
1204,12843.03
1205,12828.8
1206,12848.95
1207,12882.18
1208,12909.29
1209,12917.96
1210,12897.42
1211,12853.71
1212,12822.15
1213,12839.04
1214,12896.64
1215,12943.97
1216,12935
1217,12886.97
1218,12851.73
1219,12868.45
1220,12915.68
1221,12954.49
1222,12959.69
1223,12939
1224,12904.86
1225,12867.77
1226,12835.7
1227,12815.79
1228,12806.61
1229,12800.66
1230,12791.67
1231,12781.47
1232,12774.88
1233,12774.57
1234,12776.88
1235,12776.97
1236,12771.07
1237,12756.93
1238,12733.06
1239,12707.85
1240,12697.73
1241,12714.94
1242,12740.97
1243,12744.31
1244,12706.85
1245,12654.9
1246,12623.57
1247,12625.21
1248,12634.65
1249,12624.88
1250,12597.7
1251,12579.45
1252,12592.12
1253,12620.77
1254,12634.44
1255,12614.63
1256,12583.8
1257,12572.58
1258,12591.63
1259,12619.8
1260,12634.2
1261,12630
1262,12617.02
1263,12604.4
1264,12594.33
1265,12586.23
1266,12580.49
1267,12580.26
1268,12589.18
1269,12607.97
1270,12633.31
1271,12661.34
1272,12684.84
1273,12694.33
1274,12682
1275,12649.26
1276,12600.54
1277,12546.6
1278,12513.07
1279,12526.63
1280,12583.3
1281,12644.9
1282,12675.04
1283,12670.52
1284,12645.92
1285,12616.29
1286,12597.93
1287,12607.2
1288,12643.81
1289,12679.06
1290,12683.35
1291,12658.13
1292,12629.85
1293,12621.2
1294,12628.25
1295,12637.25
1296,12637.29
1297,12624.58
1298,12596.79
1299,12562.54
1300,12542.93
1301,12556.29
1302,12590.15
1303,12615.96
1304,12613.57
1305,12592.99
1306,12570.75
1307,12554.52
1308,12538.41
1309,12516.42
1310,12495.84
1311,12493.11
1312,12518.82
1313,12555.13
1314,12575.89
1315,12570.43
1316,12557.98
1317,12560.23
1318,12580.94
1319,12608.55
1320,12631.45
1321,12640.97
1322,12629.52
1323,12599.73
1324,12578.06
1325,12593.31
1326,12647.23
1327,12714.51
1328,12770.88
1329,12808.5
1330,12826.51
1331,12827.51
1332,12823.21
1333,12826.52
1334,12840.83
1335,12858.9
1336,12873.78
1337,12885
1338,12895.16
1339,12905.55
1340,12913.56
1341,12915.98
1342,12911.76
1343,12902.35
1344,12889.88
1345,12880.65
1346,12882.98
1347,12898.42
1348,12908.8
1349,12893
1350,12851.99
1351,12812.4
1352,12798.92
1353,12809.06
1354,12827.5
1355,12841.81
1356,12848.04
1357,12843.97
1358,12836.2
1359,12840.94
1360,12871.06
1361,12911.81
1362,12936.45
1363,12931.21
1364,12914.89
1365,12910.67
1366,12926.48
1367,12955.45
1368,12990.03
1369,13022.46
1370,13044.94
1371,13055.09
1372,13062.11
1373,13076.36
1374,13102.97
1375,13142.78
1376,13192.71
1377,13231.4
1378,13232.17
1379,13191.83
1380,13147.17
1381,13135.62
1382,13154.79
1383,13176.35
1384,13178.33
1385,13164.03
1386,13142.4
1387,13117.54
1388,13087.25
1389,13050.03
1390,13013.61
1391,12990.2
1392,12983.96
1393,12977.85
1394,12952.4
1395,12910.1
1396,12874.28
1397,12864.45
1398,12874.77
1399,12890.79
1400,12898.75
1401,12886.05
1402,12842.82
1403,12789.63
1404,12767.01
1405,12800.77
1406,12864.44
1407,12920.65
1408,12946.8
1409,12937.8
1410,12893.45
1411,12840.17
1412,12815.42
1413,12838.19
1414,12888.26
1415,12941.21
1416,12985.18
1417,13017.54
1418,13037.05
1419,13046.98
1420,13051.65
1421,13054.98
1422,13060.36
1423,13070.25
1424,13080.65
1425,13084.73
1426,13078.29
1427,13062.64
1428,13040.08
1429,13016.03
1430,12998.19
1431,12992.47
1432,12997.91
1433,13011.86
1434,13026.58
1435,13028.44
1436,13007.31
1437,12977.14
1438,12960.99
1439,12968.83
1440,12986.61
1441,12998.8
1442,13002.4
1443,13001.99
1444,12997.2
1445,12972.92
1446,12913.46
1447,12845.11
1448,12832.8
1449,12918.62
1450,13033.63
1451,13078.75
1452,13028.09
1453,12955.02
1454,12930.58
1455,12957.46
1456,13008.92
1457,13062.88
1458,13106.88
1459,13130.27
1460,13131.16
1461,13113.09
1462,13086
1463,13077.59
1464,13116.17
1465,13182.83
1466,13217.74
1467,13180.78
1468,13117.83
1469,13095.11
1470,13128.61
1471,13175.37
1472,13196.61
1473,13197.06
1474,13196.61
1475,13204.58
1476,13213.86
1477,13217.11
1478,13216.2
1479,13217.34
1480,13220.89
1481,13215.32
1482,13190.47
1483,13166.17
1484,13180.38
1485,13242.36
1486,13286.38
1487,13240.88
1488,13127.43
1489,13038.05
1490,13035.74
1491,13082.7
1492,13122
1493,13126.95
1494,13098.61
1495,13045.7
1496,13003.47
1497,13012.14
1498,13063.21
1499,13095.16
1500,13062.19
1501,13007.7
1502,13000.46
1503,13053.63
1504,13110.31
1505,13119.77
1506,13092.41
1507,13059.79
1508,13045.71
1509,13062.81
1510,13117.36
1511,13180.06
1512,13207.99
1513,13191.09
1514,13171.08
1515,13187.11
1516,13226.68
1517,13255.19
1518,13259.11
1519,13260.97
1520,13282.23
1521,13308.98
1522,13311.23
1523,13287.07
1524,13285.09
1525,13348.22
1526,13430.48
1527,13443.58
1528,13362.68
1529,13280.27
1530,13287.32
1531,13356.64
1532,13403.68
1533,13391.2
1534,13370.11
1535,13392.06
1536,13436.52
1537,13448.36
1538,13409.23
1539,13367.72
1540,13370.76
1541,13396.94
1542,13393.34
1543,13347.28
1544,13315.63
1545,13350.93
1546,13423.38
1547,13467.5
1548,13457.91
1549,13433.78
1550,13433.82
1551,13454.39
1552,13474.96
1553,13483.94
1554,13482.85
1555,13476.67
1556,13484.16
1557,13528.2
1558,13595.5
1559,13625.99
1560,13575.62
1561,13496.79
1562,13469.81
1563,13511.62
1564,13567.75
1565,13593.04
1566,13597.78
1567,13606.31
1568,13632.77
1569,13681.59
1570,13750.67
1571,13816.96
1572,13854.46
1573,13861.77
1574,13856.99
1575,13859.17
1576,13888.26
1577,13960.32
1578,14044.32
1579,14079.29
1580,14043.64
1581,14001.38
1582,14019.01
1583,14088.93
1584,14166.55
1585,14216
1586,14216.44
1587,14158.59
1588,14095.63
1589,14102.41
1590,14177.02
1591,14220.9
1592,14163.99
1593,14090.06
1594,14119.61
1595,14250.83
1596,14367.22
1597,14386.71
1598,14348.88
1599,14314.48
1600,14312.48
1601,14350.24
1602,14424.18
1603,14508.01
1604,14573.86
1605,14605.76
1606,14593.83
1607,14552.17
1608,14530.79
1609,14571.99
1610,14662.57
1611,14771.83
1612,14877.32
1613,14965.01
1614,15026.25
1615,15068.71
1616,15101.47
1617,15107.92
1618,15054.01
1619,14935.79
1620,14812.96
1621,14743.35
1622,14711.44
1623,14670.08
1624,14604.02
1625,14540.77
1626,14500.54
1627,14459.14
1628,14383.03
1629,14283.69
1630,14210.48
1631,14188.43
1632,14178.08
1633,14136.67
1634,14080.82
1635,14057.14
1636,14078.04
1637,14104.3
1638,14101.89
1639,14081.89
1640,14067.88
1641,14067.44
1642,14073.91
1643,14078.09
1644,14065.67
1645,14025.29
1646,13978.37
1647,13962.66
1648,13985.45
1649,14009.71
1650,14003.16
1651,13970.35
1652,13926.99
1653,13905.1
1654,13949.79
1655,14061.54
1656,14138.28
1657,14086.01
1658,13973.24
1659,13936.68
1660,14008.82
1661,14095.52
1662,14121.72
1663,14105.97
1664,14085.69
1665,14081.39
1666,14102.53
1667,14143.21
1668,14171.37
1669,14160.54
1670,14126.3
1671,14096.32
1672,14075.42
1673,14048.42
1674,14010.23
1675,13980.96
1676,13980.41
1677,14000.53
1678,14021.93
1679,14043.91
1680,14087.03
1681,14157.82
1682,14216.39
1683,14220.18
1684,14185.28
1685,14159.08
1686,14163.21
1687,14182.94
1688,14202.75
1689,14214.69
1690,14213.52
1691,14205.02
1692,14202.06
1693,14211.25
1694,14228.83
1695,14248.44
1696,14256.54
1697,14239.54
1698,14211.39
1699,14205.85
1700,14233.17
1701,14260.13
1702,14256.53
1703,14229.63
1704,14198.31
1705,14183.63
1706,14208.24
1707,14269.6
1708,14317.25
1709,14307.59
1710,14259.74
1711,14211.41
1712,14180.21
1713,14167.93
1714,14179.83
1715,14228.53
1716,14315.12
1717,14379.8
1718,14350.53
1719,14254.61
1720,14194.41
1721,14208.77
1722,14219.22
1723,14165.47
1724,14125.77
1725,14206.49
1726,14367.25
1727,14466.67
1728,14444.07
1729,14371.65
1730,14316.85
1731,14280.58
1732,14249.31
1733,14229.1
1734,14237.44
1735,14274.14
1736,14314.67
1737,14341.87
1738,14367.92
1739,14405.69
1740,14425.16
1741,14377.82
1742,14288.91
1743,14264.97
1744,14355.99
1745,14460.21
1746,14475.82
1747,14444.21
1748,14455.89
1749,14515.99
1750,14557.44
1751,14540.33
1752,14479.33
1753,14400.1
1754,14350.02
1755,14375.09
1756,14440.95
1757,14465.4
1758,14435.21
1759,14428.8
1760,14485.27
1761,14511.56
1762,14417.68
1763,14299.01
1764,14319.17
1765,14459.73
1766,14539.86
1767,14480.21
1768,14403.27
1769,14417.28
1770,14476.56
1771,14501.65
1772,14479.95
1773,14437.23
1774,14395.95
1775,14374.09
1776,14379.99
1777,14398.83
1778,14414.76
1779,14425.68
1780,14433.7
1781,14435
1782,14421.94
1783,14409.97
1784,14447.52
1785,14551.45
1786,14637.5
1787,14623.6
1788,14564.26
1789,14562.34
1790,14620.86
1791,14663.13
1792,14653.78
1793,14626.32
1794,14609.86
1795,14599.81
1796,14585.63
1797,14562.41
1798,14528.19
1799,14491.03
1800,14467.27
1801,14472.07
1802,14518.28
1803,14605.03
1804,14689.09
1805,14726.44
1806,14723.13
1807,14703.71
1808,14667.64
1809,14595.76
1810,14510.22
1811,14493.68
1812,14579.37
1813,14649.75
1814,14593.76
1815,14483.79
1816,14446.17
1817,14485.93
1818,14529.01
1819,14545.76
1820,14561.94
1821,14594.26
1822,14631.7
1823,14660.87
1824,14674.59
1825,14668.46
1826,14647.92
1827,14623.83
1828,14612.76
1829,14636.25
1830,14687.75
1831,14714.29
1832,14685.32
1833,14651.38
1834,14664.53
1835,14697.18
1836,14696.83
1837,14652.35
1838,14579.84
1839,14513.17
1840,14505.24
1841,14570.2
1842,14644.77
1843,14679.21
1844,14702.96
1845,14750.43
1846,14775.44
1847,14707.73
1848,14584.02
1849,14513.04
1850,14526.77
1851,14565.54
1852,14585.92
1853,14587.2
1854,14578.01
1855,14581.82
1856,14618.49
1857,14664.56
1858,14680.99
1859,14641.36
1860,14530.4
1861,14408.22
1862,14413.85
1863,14572.44
1864,14703.17
1865,14671.56
1866,14541
1867,14407.88
1868,14351.84
1869,14431.68
1870,14565.01
1871,14603.12
1872,14536.28
1873,14471.4
1874,14461.93
1875,14484.88
1876,14524.94
1877,14594.61
1878,14686.58
1879,14711.88
1880,14591.76
1881,14412.69
1882,14309.31
1883,14298.08
1884,14328.43
1885,14372.68
1886,14424.08
1887,14468.67
1888,14481.76
1889,14459.94
1890,14446.23
1891,14476.67
1892,14544.02
1893,14626.15
1894,14669.72
1895,14624.4
1896,14556.37
1897,14581.49
1898,14662.07
1899,14646.43
1900,14522.51
1901,14439.96
1902,14467.58
1903,14522.84
1904,14543.57
1905,14556.18
1906,14586.51
1907,14605.24
1908,14578.2
1909,14521.24
1910,14466.42
1911,14426.09
1912,14401.97
1913,14395.98
1914,14410.1
1915,14442.75
1916,14488.24
1917,14533.83
1918,14556.09
1919,14541.6
1920,14501.52
1921,14452.39
1922,14417.16
1923,14414.68
1924,14437.87
1925,14471.61
1926,14498.65
1927,14501.89
1928,14475.93
1929,14422.67
1930,14350.08
1931,14272.1
1932,14232.77
1933,14307.48
1934,14466.45
1935,14519.36
1936,14397.37
1937,14309.02
1938,14393.05
1939,14494.67
1940,14458.17
1941,14325.42
1942,14184.42
1943,14111.8
1944,14163.1
1945,14262.93
1946,14288.57
1947,14244
1948,14205.26
1949,14186.43
1950,14154.61
1951,14133.15
1952,14201.18
1953,14339.46
1954,14398.02
1955,14313.22
1956,14181.27
1957,14083.54
1958,14035.72
1959,14037.92
1960,14070.46
1961,14113.91
1962,14162.32
1963,14207.05
1964,14212.76
1965,14150.3
1966,14075.63
1967,14062.95
1968,14078.71
1969,14046.97
1970,13978.83
1971,13933.5
1972,13926.66
1973,13941.5
1974,13949.62
1975,13914.94
1976,13850.31
1977,13819.58
1978,13831.14
1979,13819.91
1980,13777.03
1981,13787.12
1982,13868.12
1983,13900.62
1984,13829.9
1985,13776.98
1986,13820.6
1987,13865.68
1988,13835.15
1989,13798.02
1990,13823.64
1991,13875.04
1992,13899.21
1993,13882.69
1994,13832.02
1995,13801
1996,13835.24
1997,13835.36
1998,13681.85
1999,13505.78
2000,13514.29
2001,13632.39
2002,13664.25
2003,13613.26
2004,13588.67
2005,13614.44
2006,13658.62
2007,13677.25
2008,13623.44
2009,13528.82
2010,13482.1
2011,13480.13
2012,13441.83
2013,13360.49
2014,13301.86
2015,13299.59
2016,13349.62
2017,13412.77
2018,13413.83
2019,13335.26
2020,13231.97
2021,13141.56
2022,13073.16
2023,13036.79
2024,13045.74
2025,13078.58
2026,13063.03
2027,12996.3
2028,12990.24
2029,13076.24
2030,13136.7
2031,13114.79
2032,13082.74
2033,13081.84
2034,13074.71
2035,13030.56
2036,12946.4
2037,12841.23
2038,12770.03
2039,12761.09
2040,12782.35
2041,12799.05
2042,12785.34
2043,12747.28
2044,12752.58
2045,12816.98
2046,12836.28
2047,12754.25
2048,12641.08
2049,12557.17
2050,12512.13
2051,12498.61
2052,12487.53
2053,12464.64
2054,12449.49
2055,12451.74
2056,12454.6
2057,12440.25
2058,12394.79
2059,12334.79
2060,12329.63
2061,12375.87
2062,12336.74
2063,12196.11
2064,12155.65
2065,12261.82
2066,12288.79
2067,12147.03
2068,11983.32
2069,11898.04
2070,11899.12
2071,11951.33
2072,11973.96
2073,11952.42
2074,11953.7
2075,11971.25
2076,11915.17
2077,11816.59
2078,11827.86
2079,11911.09
2080,11855.46
2081,11693.84
2082,11659.98
2083,11730.01
2084,11692.11
2085,11600.74
2086,11673.42
2087,11792.41
2088,11667.17
2089,11419.89
2090,11362.53
2091,11430.62
2092,11400.76
2093,11263.8
2094,11104.89
2095,11011.51
2096,11039.71
2097,11077.11
2098,11020.85
2099,11054.02
2100,11303.54
2101,11387.71
2102,11033.42
2103,10688.35
2104,10718.42
2105,10894.8
2106,10986.27
2107,10973.81
2108,10886.74
2109,10790.99
2110,10735.33
2111,10733.96
2112,10748.35
2113,10679.35
2114,10536.67
2115,10446.79
2116,10434.97
2117,10433.99
2118,10422.31
2119,10409.25
2120,10349.77
2121,10189.34
2122,10064.22
2123,10140.1
2124,10186.59
2125,9952.337
2126,9829.149
2127,10164.34
2128,10401.02
2129,10094.28
2130,9747.038
2131,9740.379
2132,9792.504
2133,9720.891
2134,9675.148
2135,9675.476
2136,9528.163
2137,9304.394
2138,9349.93
2139,9575.502
2140,9557.797
2141,9325.416
2142,9171.568
2143,9132.657
2144,9120.675
2145,9063.352
2146,8934.148
2147,8876.063
2148,8970.994
2149,8971.984
2150,8746.424
2151,8563.133
2152,8590.198
2153,8733.568
2154,8836.934
2155,8713.285
2156,8478.973
2157,8493.573
2158,8672.236
2159,8676.567
2160,8586.145
2161,8615.589
2162,8588.242
2163,8301.455
2164,7969.287
2165,7794.665
2166,7688.742
2167,7602.248
2168,7642.843
2169,7768.016
2170,7729.59
2171,7535.382
2172,7424.918
2173,7416.874
2174,7399.085
2175,7401.241
2176,7478.993
2177,7498.583
2178,7366.498
2179,7300.776
2180,7400.17
2181,7381.982
2182,7196.232
2183,7182.256
2184,7298.193
2185,7134.655
2186,6746.408
2187,6480.506
2188,6471.625
2189,6699.157
2190,6874.754
2191,6785.356
2192,6658.104
2193,6653.09
2194,6657.435
2195,6581.321
2196,6408.661
2197,6263.224
2198,6337.605
2199,6461.248
2200,6348.006
2201,6117.723
2202,5975.606
2203,5967.409
2204,6016.773
2205,5876.267
2206,5601.661
2207,5624.767
2208,5842.2
2209,5773.507
2210,5582.867
2211,5631.219
2212,5608.882
2213,5266.954
2214,5125.556
2215,5405.058
2216,5573.308
2217,5428.248
2218,5199.851
2219,5035.854
2220,4994.001
2221,4996.312
2222,4948.147
2223,4891.947
2224,4898.319
2225,5025.599
2226,5151.229
2227,4954.396
2228,4541.628
2229,4309.518
2230,4307.298
2231,4416.674
2232,4488.635
2233,4412.067
2234,4183.45
2235,3983.058
2236,4169.094
2237,4468.934
2238,4265.359
2239,4014.966
2240,4308.298
2241,4430.599
2242,3951.995
2243,3666.504
2244,3824.458
2245,3892.232
2246,3800.955
2247,3779.687
2248,3780.203
2249,3690.689
2250,3529.923
2251,3368.222
2252,3313.496
2253,3346.671
2254,3339.884
2255,3285.62
2256,3234.652
2257,3210.433
2258,3193.831
2259,3092.707
2260,2964.875
2261,3031.27
2262,3183.748
2263,3153.597
2264,3004.624
2265,2895.153
2266,2925.751
2267,3015.729
2268,2869.487
2269,2573.106
2270,2451.127
2271,2439.971
2272,2383.888
2273,2312.772
2274,2256.087
2275,2192.15
2276,2145.036
2277,2168.917
2278,2252.566
2279,2347.607
2280,2375.466
2281,2319.732
2282,2258.498
2283,2136.701
2284,1860.891
2285,1784.873
2286,2121.408
2287,2194.54
2288,1834.736
2289,1742.736
2290,1893.494
2291,1830.347
2292,1755.381
2293,1859.988
2294,1775.486
2295,1502.477
2296,1516.429
2297,1706.387
2298,1697.347
2299,1500.002
2300,1245.31
