400,43551.09
401,43549.22
402,43559.48
403,43567.21
404,43557.52
405,43519.85
406,43463.56
407,43403.79
408,43354.51
409,43313.86
410,43267.8
411,43202.16
412,43118.26
413,43047.34
414,43023.91
415,43072.14
416,43161.7
417,43244.35
418,43274.04
419,43239.09
420,43157.07
421,43046.38
422,42927.56
423,42825.84
424,42766.88
425,42768.48
426,42804.25
427,42832.29
428,42812.76
429,42740.19
430,42639.39
431,42536.02
432,42447.7
433,42375.07
434,42316.55
435,42270.25
436,42232.23
437,42197.85
438,42162.36
439,42118.22
440,42055.52
441,41964.39
442,41846.28
443,41725.46
444,41628.95
445,41576.41
446,41549.86
447,41519.14
448,41456.31
449,41366.17
450,41279.29
451,41226.51
452,41216.15
453,41215.64
454,41188.21
455,41106.04
456,40981.07
457,40836.4
458,40694.42
459,40569.36
460,40469.98
461,40404.64
462,40367.56
463,40331.32
464,40266.84
465,40156.88
466,40027.28
467,39913.56
468,39846.97
469,39820.26
470,39805.04
471,39773.27
472,39711.96
473,39626.34
474,39522.75
475,39408.43
476,39293.2
477,39187.31
478,39099.91
479,39033.21
480,38986.58
481,38958.89
482,38940.12
483,38912.12
484,38856.61
485,38764.48
486,38644.82
487,38508.79
488,38369.39
489,38248.12
490,38168.87
491,38151.78
492,38174.28
493,38186.35
494,38138.69
495,38023.61
496,37890.09
497,37790.92
498,37754.68
499,37738.37
500,37685.9
501,37552.71
502,37372.42
503,37211.54
504,37133.07
505,37136.82
506,37166.34
507,37163.75
508,37100.11
509,36999.68
510,36892.3
511,36801.72
512,36727.78
513,36664.2
514,36604.57
515,36540.64
516,36463.16
517,36363.48
518,36248.75
519,36143.51
520,36073.07
521,36045.79
522,36032.02
523,35997.02
524,35915.62
525,35808.81
526,35711.53
527,35654.69
528,35625.59
529,35583.99
530,35490.45
531,35342.73
532,35184.71
533,35062.9
534,35002.41
535,34975.64
536,34947.05
537,34886.78
538,34793.77
539,34676.43
540,34544.06
541,34417.08
542,34323.16
543,34289.16
544,34312.25
545,34352.28
546,34366.99
547,34330.36
548,34255.94
549,34163.16
550,34068.11
551,33970.43
552,33864.62
553,33746.89
554,33632.18
555,33546.89
556,33516.29
557,33529.79
558,33535.54
559,33479.88
560,33345.26
561,33192.45
562,33092.13
563,33091.15
564,33134.86
565,33141.67
566,33041.82
567,32866.92
568,32701.24
569,32625.35
570,32640
571,32669.75
572,32637.08
573,32515.29
574,32365.69
575,32258.06
576,32235.28
577,32252.75
578,32248.22
579,32170.82
580,32040.82
581,31906.42
582,31812.15
583,31755.18
584,31698.74
585,31606.38
586,31474.56
587,31341.29
588,31246.99
589,31208.57
590,31189.99
591,31148.09
592,31053.23
593,30932.09
594,30826.03
595,30770.33
596,30752.68
597,30737.86
598,30692.37
599,30612.59
600,30520.04
601,30436.63
602,30371.08
603,30313.17
604,30251.24
605,30178.95
606,30103.21
607,30032.99
608,29975.13
609,29927.11
610,29883.73
611,29840.16
612,29794.1
613,29744.64
614,29691.12
615,29638.21
616,29595.04
617,29570.61
618,29561.83
619,29548.63
620,29509.8
621,29434.57
622,29336.98
623,29234.57
624,29141.22
625,29055.72
626,28972.97
627,28889.5
628,28813.94
629,28760.27
630,28740.58
631,28740.73
632,28727.28
633,28667.36
634,28556.65
635,28424.66
636,28302.66
637,28211
638,28149.13
639,28114.13
640,28099.81
641,28089.45
642,28064.29
643,28009.5
644,27931.18
645,27842.46
646,27756.05
647,27681.36
648,27625.88
649,27596.29
650,27584.38
651,27569.13
652,27529.46
653,27457.59
654,27363.64
655,27258.92
656,27157.01
657,27076.2
658,27035.38
659,27043.25
660,27074.27
661,27095.7
662,27079.45
663,27022.8
664,26931.75
665,26813.73
666,26689.73
667,26588.01
668,26534.74
669,26521.89
670,26513.15
671,26472.43
672,26394.23
673,26311.1
674,26257.54
675,26242.95
676,26229.66
677,26175.04
678,26057.35
679,25914.71
680,25795.79
681,25736.89
682,25719.66
683,25710.46
684,25679.54
685,25623.73
686,25551.24
687,25470.23
688,25387.84
689,25310.55
690,25244.84
691,25196.91
692,25172.79
693,25178.12
694,25202.71
695,25215.05
696,25182.43
697,25092.33
698,24971.72
699,24852.02
700,24757.36
701,24691.05
702,24652.69
703,24638.59
704,24631.1
705,24608.81
706,24554.18
707,24473.67
708,24383.27
709,24298.34
710,24228.07
711,24178.21
712,24153.51
713,24144.13
714,24128.59
715,24085.94
716,24017.32
717,23948.44
718,23905.79
719,23894.59
720,23887.13
721,23853.12
722,23780.03
723,23693.58
724,23624.3
725,23588.87
726,23562.02
727,23510.63
728,23412.74
729,23293.82
730,23192.07
731,23138.56
732,23121.46
733,23112.74
734,23087.34
735,23045.65
736,23001.29
737,22966.49
738,22934.21
739,22883.87
740,22796.21
741,22682.7
742,22583.64
743,22539.19
744,22551.43
745,22575.2
746,22563.06
747,22500.04
748,22424.37
749,22378.95
750,22381.73
751,22396.38
752,22379.57
753,22306.22
754,22203.94
755,22109.81
756,22052.28
757,22026.75
758,22020.52
759,22021.04
760,22016.27
761,21994.39
762,21945.95
763,21877.87
764,21804.09
765,21737.26
766,21677.69
767,21618.83
768,21554.57
769,21484.97
770,21414.47
771,21347.63
772,21289.58
773,21245.97
774,21222.04
775,21211.19
776,21193.47
777,21148.7
778,21074.39
779,20993.11
780,20929.05
781,20894.05
782,20878.25
783,20869.58
784,20857.48
785,20834.51
786,20793.72
787,20734.21
788,20671.87
789,20625.4
790,20605.27
791,20593.49
792,20565.98
793,20506.01
794,20428.67
795,20357.67
796,20311.61
797,20281.76
798,20250.11
799,20201.61
800,20140.7
801,20079.98
802,20030.48
803,19990.24
804,19950.74
805,19903.94
806,19847.04
807,19780.41
808,19705.12
809,19630.67
810,19572.7
811,19545.58
812,19540.19
813,19527.28
814,19478.31
815,19394.04
816,19304.73
817,19241.13
818,19212.93
819,19205.05
820,19201.14
821,19188.5
822,19159.45
823,19106.86
824,19033.8
825,18959.56
826,18904.69
827,18876.89
828,18860.14
829,18835.99
830,18794.51
831,18743.95
832,18694.83
833,18653.32
834,18614.93
835,18573.56
836,18527.24
837,18485.63
838,18460.39
839,18456.7
840,18458.74
841,18446.47
842,18404.97
843,18338.11
844,18254.11
845,18161.96
846,18074.06
847,18003.7
848,17960.3
849,17935.11
850,17913.94
851,17885.05
852,17849.6
853,17813.05
854,17780.29
855,17752.71
856,17730.35
857,17712.02
858,17687.72
859,17643.85
860,17570.62
861,17486.89
862,17424.54
863,17410.46
864,17429.84
865,17447.15
866,17430.6
867,17383.27
868,17327.19
869,17282.76
870,17252.56
871,17228.76
872,17204.02
873,17177.87
874,17154.19
875,17136.08
876,17116.33
877,17080.86
878,17017.39
879,16939.21
880,16877.91
881,16862.82
882,16886.46
883,16913.55
884,16910.26
885,16875.18
886,16832.65
887,16806.29
888,16796.31
889,16783.4
890,16748.81
891,16693.47
892,16635.36
893,16592.38
894,16570.27
895,16563.82
896,16567.31
897,16572.45
898,16568.48
899,16545.22
900,16505.53
901,16464.79
902,16438.17
903,16426.01
904,16414.14
905,16388.44
906,16349.25
907,16311.37
908,16289.53
909,16283.3
910,16276.9
911,16254.42
912,16213.35
913,16164.86
914,16120.36
915,16082.61
916,16045.49
917,16002.61
918,15950.36
919,15888.02
920,15815.35
921,15740.54
922,15680.46
923,15651.34
924,15646.73
925,15637.02
926,15593.03
927,15516.9
928,15442.31
929,15402.8
930,15400.66
931,15407.28
932,15393.82
933,15352.5
934,15295.97
935,15237.53
936,15187.45
937,15153.22
938,15141.48
939,15145.8
940,15147.73
941,15129.35
942,15089.46
943,15041.6
944,14999.39
945,14969.71
946,14953.69
947,14951.78
948,14956.39
949,14953.44
950,14929.77
951,14888.62
952,14845.99
953,14817
954,14800.93
955,14785.42
956,14758.81
957,14721.89
958,14684.09
959,14654.48
960,14636.24
961,14628.66
962,14630.61
963,14636.86
964,14639.68
965,14632.27
966,14617
967,14601.47
968,14591.84
969,14581.09
970,14555.26
971,14503.38
972,14439.17
973,14388.33
974,14372.26
975,14380.73
976,14389.42
977,14376.93
978,14341.27
979,14288.3
980,14224.93
981,14164.17
982,14121.29
983,14108.4
984,14121.19
985,14149.88
986,14182.93
987,14200.15
988,14178.84
989,14106.81
990,14016.08
991,13950.22
992,13938.69
993,13958.5
994,13974.49
995,13960.66
996,13920.91
997,13865.27
998,13804.23
999,13749.68
1000,13713.75
1001,13700.54
1002,13693.89
1003,13674.61
1004,13634.03
1005,13586.87
1006,13550.94
1007,13538.16
1008,13533.51
1009,13514.25
1010,13466.34
1011,13410.41
1012,13375.72
1013,13381.37
1014,13411.45
1015,13442.54
1016,13457.94
1017,13460.8
1018,13457.97
1019,13453.53
1020,13444.58
1021,13427.15
1022,13400.21
1023,13369.07
1024,13339.83
1025,13316.03
1026,13296.55
1027,13279.69
1028,13261.87
1029,13236.47
1030,13196.86
1031,13145.09
1032,13094.67
1033,13059.58
1034,13045.21
1035,13047.48
1036,13061.71
1037,13081.12
1038,13096.97
1039,13100.92
1040,13090.9
1041,13069.68
1042,13040.56
1043,13011.43
1044,12993.08
1045,12994.44
1046,13007.99
1047,13017.7
1048,13009.79
1049,12986.16
1050,12955.19
1051,12924.31
1052,12895.75
1053,12869.99
1054,12848.28
1055,12834.88
1056,12834.84
1057,12849.31
1058,12867.09
1059,12874.57
1060,12864.44
1061,12845.01
1062,12826.88
1063,12816.34
1064,12811.34
1065,12808.87
1066,12803.85
1067,12788.15
1068,12753.88
1069,12707.82
1070,12673.84
1071,12675.38
1072,12710.48
1073,12754.27
1074,12782.73
1075,12792.79
1076,12795.86
1077,12802.98
1078,12819.43
1079,12847.47
1080,12888.49
1081,12938.72
1082,12992.37
1083,13042.9
1084,13080.39
1085,13093.94
1086,13078.04
1087,13044.82
1088,13009.98
1089,12985.99
1090,12977.65
1091,12988.48
1092,13010.92
1093,13018.11
1094,12982.14
1095,12905.24
1096,12827.85
1097,12790.72
1098,12792.58
1099,12793.22
1100,12754.36
1101,12678.88
1102,12597.39
1103,12537.87
1104,12503.73
1105,12486.58
1106,12478.62
1107,12475.85
1108,12475.52
1109,12475.64
1110,12476.98
1111,12480.92
1112,12487.51
1113,12493.41
1114,12494.83
1115,12491.28
1116,12487.86
1117,12490.03
1118,12497.37
1119,12502.43
1120,12497.66
1121,12479.84
1122,12449.46
1123,12407.32
1124,12357.03
1125,12303.69
1126,12251.83
1127,12202.11
1128,12153.73
1129,12106.2
1130,12060.16
1131,12016.53
1132,11974.47
1133,11928.53
1134,11872.69
1135,11810.96
1136,11764.17
1137,11753.87
1138,11776.65
1139,11801.23
1140,11797.12
1141,11766.15
1142,11734.2
1143,11724.5
1144,11734.42
1145,11748.72
1146,11754.71
1147,11752.49
1148,11746.1
1149,11738.88
1150,11732.05
1151,11726.43
1152,11720.88
1153,11710.57
1154,11690.44
1155,11661
1156,11629.5
1157,11603.25
1158,11584.71
1159,11572.54
1160,11564.88
1161,11556.21
1162,11539.24
1163,11510.5
1164,11484.47
1165,11480.95
1166,11507.96
1167,11541.03
1168,11550.31
1169,11525.9
1170,11491.35
1171,11472.59
1172,11475.81
1173,11486.73
1174,11490.46
1175,11476.29
1176,11436.22
1177,11366.81
1178,11292.74
1179,11249.34
1180,11257.4
1181,11286.98
1182,11297.27
1183,11269.48
1184,11228.85
1185,11205.11
1186,11203.84
1187,11201.81
1188,11176.18
1189,11131.99
1190,11094.13
1191,11083.87
1192,11095.29
1193,11111.23
1194,11117.11
1195,11107.73
1196,11080.13
1197,11037.8
1198,10997.43
1199,10976.73
1200,10976.91
1201,10979.85
1202,10967.84
1203,10941.84
1204,10915.44
1205,10900.93
1206,10901.1
1207,10915.18
1208,10938.16
1209,10951.52
1210,10934.29
1211,10888.99
1212,10859.14
1213,10890.02
1214,10974.62
1215,11054.56
1216,11075.77
1217,11044.66
1218,11000.71
1219,10976.43
1220,10970.23
1221,10970.7
1222,10967.88
1223,10955.4
1224,10927.65
1225,10889.06
1226,10856.95
1227,10847.92
1228,10858.2
1229,10869.63
1230,10867.61
1231,10860.69
1232,10865.98
1233,10889.83
1234,10906.59
1235,10885.24
1236,10824.18
1237,10766.82
1238,10757.78
1239,10799.65
1240,10860.73
1241,10910.03
1242,10928.55
1243,10902.38
1244,10829.34
1245,10745.97
1246,10696.4
1247,10699.22
1248,10730.89
1249,10764.8
1250,10788.54
1251,10801.92
1252,10805.27
1253,10800.17
1254,10788.75
1255,10774.26
1256,10763.63
1257,10764.43
1258,10776.99
1259,10790.09
1260,10792.32
1261,10786.25
1262,10785.75
1263,10801.59
1264,10822.39
1265,10827.94
1266,10806.99
1267,10774.54
1268,10750.16
1269,10743.29
1270,10749.16
1271,10761.95
1272,10776.09
1273,10786.21
1274,10787.97
1275,10782.45
1276,10772.52
1277,10762.41
1278,10759.61
1279,10771.66
1280,10794.82
1281,10812.73
1282,10810.57
1283,10793.81
1284,10778.74
1285,10776.58
1286,10778.61
1287,10771.49
1288,10751.35
1289,10730.55
1290,10722.23
1291,10727.13
1292,10735.99
1293,10740.7
1294,10742.01
1295,10743.91
1296,10749.38
1297,10758.99
1298,10772.74
1299,10785.4
1300,10785.88
1301,10765.37
1302,10738.53
1303,10732.28
1304,10761.41
1305,10797.39
1306,10802.55
1307,10766.56
1308,10720.59
1309,10696.92
1310,10696.3
1311,10697.77
1312,10686.35
1313,10677.52
1314,10695.59
1315,10747.54
1316,10806.67
1317,10843.75
1318,10852.87
1319,10848.11
1320,10842.62
1321,10840.13
1322,10840.9
1323,10845.68
1324,10856.25
1325,10874.51
1326,10900.09
1327,10930.45
1328,10962.39
1329,10989.05
1330,11001.97
1331,10999.83
1332,11000.27
1333,11023.24
1334,11063.67
1335,11088.67
1336,11069.61
1337,11023.15
1338,10987.26
1339,10988.32
1340,11018.91
1341,11065.43
1342,11110.66
1343,11133.21
1344,11115.96
1345,11078.78
1346,11059.46
1347,11076.82
1348,11093.72
1349,11064.26
1350,10988
1351,10917.38
1352,10900.24
1353,10923.86
1354,10946.92
1355,10943.15
1356,10928.8
1357,10926.82
1358,10941.54
1359,10956.96
1360,10959.48
1361,10960.19
1362,10980.9
1363,11031.45
1364,11091.64
1365,11137.3
1366,11159.63
1367,11164.85
1368,11159.62
1369,11149.42
1370,11139.34
1371,11134.66
1372,11141.16
1373,11164.11
1374,11199.39
1375,11235.14
1376,11260.39
1377,11269.75
1378,11259.6
1379,11237.27
1380,11228.65
1381,11258.01
1382,11307.94
1383,11333.83
1384,11307.16
1385,11260.36
1386,11238.95
1387,11252.36
1388,11262.93
1389,11235.71
1390,11184.44
1391,11146.56
1392,11141.65
1393,11141.97
1394,11113.77
1395,11058.81
1396,11012.51
1397,11003.9
1398,11019.5
1399,11031.53
1400,11023.07
1401,10996.66
1402,10957.8
1403,10922.6
1404,10914.15
1405,10944.4
1406,10986.41
1407,11005.56
1408,10994.72
1409,10979.23
1410,10982.4
1411,11000.32
1412,11017.79
1413,11026.29
1414,11031.51
1415,11040.88
1416,11060.02
1417,11093.25
1418,11138.95
1419,11172.59
1420,11165.03
1421,11123.86
1422,11103.13
1423,11147.75
1424,11215.39
1425,11226.06
1426,11148.04
1427,11053.15
1428,11021.18
1429,11055.62
1430,11104.47
1431,11124.63
1432,11110.17
1433,11064.18
1434,11005.85
1435,10973.16
1436,10996.57
1437,11053.05
1438,11099.17
1439,11108.68
1440,11087.09
1441,11045.13
1442,11012.78
1443,11031.79
1444,11114.95
1445,11190.73
1446,11176.89
1447,11083.96
1448,11007.9
1449,11023.2
1450,11091.03
1451,11141.19
1452,11145.84
1453,11134.67
1454,11136.73
1455,11146.95
1456,11145.66
1457,11127.31
1458,11114.3
1459,11130.05
1460,11172.33
1461,11222.91
1462,11264.8
1463,11285.28
1464,11273.55
1465,11239.74
1466,11212.18
1467,11211.92
1468,11227.67
1469,11240.36
1470,11244.85
1471,11252.27
1472,11270.62
1473,11284.71
1474,11271.54
1475,11232.3
1476,11205.75
1477,11227.4
1478,11281.09
1479,11326.4
1480,11335.71
1481,11307.7
1482,11245.96
1483,11173.07
1484,11123.1
1485,11114.63
1486,11125.53
1487,11129.43
1488,11133.54
1489,11170.47
1490,11251.51
1491,11316.33
1492,11293.87
1493,11192
1494,11091.17
1495,11056.56
1496,11080.39
1497,11136.56
1498,11198
1499,11236.56
1500,11231.6
1501,11199.08
1502,11165.6
1503,11144.38
1504,11131.67
1505,11123.32
1506,11119.11
1507,11120.14
1508,11126.76
1509,11138.32
1510,11154.19
1511,11174.75
1512,11200.68
1513,11227.92
1514,11245.05
1515,11242.89
1516,11233.17
1517,11236.55
1518,11260.68
1519,11291.03
1520,11311.98
1521,11316.5
1522,11301.66
1523,11274.99
1524,11262.69
1525,11287.89
1526,11332.49
1527,11358.73
1528,11351.65
1529,11338.5
1530,11347.33
1531,11374.57
1532,11401.27
1533,11416.57
1534,11424.71
1535,11431.02
1536,11436.27
1537,11439.05
1538,11438.19
1539,11433.07
1540,11424.37
1541,11422.58
1542,11442.54
1543,11481.29
1544,11505.14
1545,11483.76
1546,11433.86
1547,11392.62
1548,11380.05
1549,11388.44
1550,11408.92
1551,11441.41
1552,11489.04
1553,11538.21
1554,11550.93
1555,11499.52
1556,11427.83
1557,11404.18
1558,11445.61
1559,11502.57
1560,11530.25
1561,11530.31
1562,11518.53
1563,11500.95
1564,11472.65
1565,11434.74
1566,11415.89
1567,11450.04
1568,11527.99
1569,11599.34
1570,11628.83
1571,11638.94
1572,11662.43
1573,11698.2
1574,11718.41
1575,11711.92
1576,11715.21
1577,11768.07
1578,11853.76
1579,11919.54
1580,11933.75
1581,11911.4
1582,11874.28
1583,11849.52
1584,11866.58
1585,11923.35
1586,11965.37
1587,11947.47
1588,11912.61
1589,11935.37
1590,12022.52
1591,12095.42
1592,12092.94
1593,12056.19
1594,12051.82
1595,12089.56
1596,12125.84
1597,12134.25
1598,12148.48
1599,12208.91
1600,12292.61
1601,12333.73
1602,12307.36
1603,12279.08
1604,12314.34
1605,12381.5
1606,12403.54
1607,12362.18
1608,12327.69
1609,12360.05
1610,12427.85
1611,12472.45
1612,12485.79
1613,12511.76
1614,12576.95
1615,12643.02
1616,12662.19
1617,12637.46
1618,12606.56
1619,12591.97
1620,12582.62
1621,12562.75
1622,12513.33
1623,12414.83
1624,12288.13
1625,12207.96
1626,12225.54
1627,12274.39
1628,12261.26
1629,12179.25
1630,12094.09
1631,12047.86
1632,12017.03
1633,11973.21
1634,11934.82
1635,11943.66
1636,11999.49
1637,12038.85
1638,12008.89
1639,11932.41
1640,11853.82
1641,11802.45
1642,11794.13
1643,11826.1
1644,11848.6
1645,11814.14
1646,11761.42
1647,11772.31
1648,11868.28
1649,11982.7
1650,12052.34
1651,12060.45
1652,12005.06
1653,11917.93
1654,11858.14
1655,11855.74
1656,11872.65
1657,11868.08
1658,11850.86
1659,11850.86
1660,11877.22
1661,11913.76
1662,11942.18
1663,11942.25
1664,11897.94
1665,11847.19
1666,11861.9
1667,11962.2
1668,12078.01
1669,12139.89
1670,12128.06
1671,12040.75
1672,11919.38
1673,11843.1
1674,11854.47
1675,11906.97
1676,11947.17
1677,11964.16
1678,11965.14
1679,11955.04
1680,11936.15
1681,11915.52
1682,11915.02
1683,11953.66
1684,11997.15
1685,11983.52
1686,11912.58
1687,11870.67
1688,11920.76
1689,12011.97
1690,12071.46
1691,12086.52
1692,12083.21
1693,12075.3
1694,12055.47
1695,12020.56
1696,11994.46
1697,12005.63
1698,12041.45
1699,12059.44
1700,12035.31
1701,11979.15
1702,11910.7
1703,11878.96
1704,11936.3
1705,12047.98
1706,12111.66
1707,12078.46
1708,12004.98
1709,11950.28
1710,11925.12
1711,11924.95
1712,11943.11
1713,11971.23
1714,12002.78
1715,12034.72
1716,12064
1717,12085.6
1718,12094.32
1719,12091.57
1720,12083.78
1721,12075.79
1722,12069.36
1723,12066.1
1724,12068.26
1725,12077.21
1726,12080.62
1727,12057.12
1728,12016.89
1729,12020.94
1730,12105.65
1731,12192.06
1732,12184.47
1733,12112.21
1734,12078.38
1735,12116.27
1736,12162.66
1737,12167.11
1738,12142.95
1739,12115.47
1740,12102.8
1741,12118.85
1742,12156.71
1743,12186.55
1744,12188.49
1745,12170.49
1746,12143.71
1747,12112.48
1748,12079.39
1749,12060.73
1750,12084.1
1751,12142.31
1752,12163.22
1753,12092.47
1754,11983.25
1755,11913.92
1756,11918.97
1757,12005.05
1758,12141.69
1759,12250.18
1760,12276.72
1761,12249.65
1762,12209.26
1763,12175.79
1764,12160.49
1765,12162.58
1766,12170.5
1767,12177.22
1768,12184.94
1769,12193.57
1770,12189.3
1771,12157.42
1772,12110.42
1773,12075.92
1774,12062.79
1775,12057.43
1776,12053.27
1777,12064.08
1778,12100.76
1779,12141.26
1780,12155.05
1781,12149.51
1782,12158.29
1783,12176.08
1784,12141.12
1785,12034.85
1786,11979.53
1787,12088.71
1788,12249.59
1789,12271.07
1790,12158.17
1791,12072.48
1792,12084.68
1793,12115.03
1794,12097.82
1795,12055.37
1796,12025.84
1797,12034.5
1798,12099.27
1799,12204.12
1800,12304.92
1801,12355.53
1802,12308.18
1803,12157.83
1804,12034.25
1805,12062.91
1806,12165.69
1807,12191.62
1808,12130.55
1809,12080.6
1810,12087.05
1811,12114.48
1812,12131.27
1813,12134.13
1814,12125.04
1815,12108.13
1816,12089.3
1817,12085.71
1818,12121.27
1819,12194.79
1820,12274.54
1821,12328.04
1822,12325.35
1823,12249.93
1824,12141.76
1825,12053.72
1826,12016.59
1827,12047.9
1828,12124.7
1829,12187.01
1830,12200.12
1831,12173.29
1832,12123.65
1833,12079.49
1834,12067.78
1835,12094.95
1836,12157.31
1837,12218.4
1838,12221.86
1839,12145.97
1840,12008.53
1841,11875.27
1842,11900.77
1843,12157.37
1844,12392.46
1845,12342.16
1846,12137.6
1847,12049.68
1848,12109.96
1849,12185.67
1850,12215.07
1851,12223.52
1852,12221.55
1853,12180.48
1854,12092.2
1855,12036.15
1856,12086.25
1857,12162.4
1858,12138.49
1859,12045.54
1860,12012.71
1861,12061.51
1862,12097.28
1863,12075.23
1864,12047.95
1865,12058.97
1866,12096.28
1867,12139.45
1868,12176.85
1869,12199.92
1870,12203.48
1871,12184.71
1872,12151.98
1873,12122.76
1874,12101.18
1875,12073.24
1876,12032.8
1877,11993.37
1878,11973.71
1879,12001.97
1880,12094.99
1881,12191.7
1882,12210.7
1883,12151.89
1884,12061.8
1885,11982.25
1886,11949.64
1887,11967.54
1888,11994.94
1889,12001.83
1890,11988.41
1891,11958.75
1892,11917.05
1893,11873.93
1894,11873.65
1895,11957.6
1896,12045.24
1897,12004.55
1898,11871.27
1899,11807.24
1900,11863.99
1901,11963.61
1902,12038.7
1903,12051.82
1904,11989.6
1905,11892.4
1906,11813.56
1907,11823.4
1908,11964
1909,12086.3
1910,12002.17
1911,11811.17
1912,11753.16
1913,11836.95
1914,11894.9
1915,11886.68
1916,11916.77
1917,11998.42
1918,11989.92
1919,11831.42
1920,11677.85
1921,11659.66
1922,11731.08
1923,11816.49
1924,11868.99
1925,11857.9
1926,11807.16
1927,11763.77
1928,11772.01
1929,11868.4
1930,11988.71
1931,11990.73
1932,11859.42
1933,11723.15
1934,11661.76
1935,11670.12
1936,11727.62
1937,11796.37
1938,11839.52
1939,11829.58
1940,11752.12
1941,11637.5
1942,11529.7
1943,11486.72
1944,11556.19
1945,11672.45
1946,11726.99
1947,11701.66
1948,11633.25
1949,11568.88
1950,11560.28
1951,11590.83
1952,11576.05
1953,11496.49
1954,11421.54
1955,11406.65
1956,11473.3
1957,11595.43
1958,11651.34
1959,11574.32
1960,11486.59
1961,11493
1962,11515.75
1963,11463.9
1964,11379.18
1965,11332.12
1966,11331.69
1967,11358.22
1968,11347.58
1969,11231.82
1970,11119.14
1971,11200.94
1972,11392.4
1973,11422.04
1974,11269.44
1975,11134.56
1976,11109.76
1977,11163.93
1978,11239.18
1979,11252.11
1980,11187.29
1981,11136.3
1982,11149.11
1983,11181.94
1984,11209.84
1985,11271.79
1986,11370.7
1987,11392.24
1988,11270.76
1989,11154.24
1990,11169.92
1991,11209.53
1992,11152.79
1993,11071.23
1994,11063.07
1995,11087.79
1996,11075.85
1997,11057.12
1998,11080.61
1999,11062.77
2000,10892.36
2001,10712.65
2002,10760.23
2003,10938.78
2004,10986.92
2005,10917.99
2006,10908.99
2007,10970.49
2008,10998.81
2009,10986.22
2010,10998.29
2011,11021.53
2012,10975.67
2013,10864.36
2014,10771.99
2015,10741.97
2016,10770.7
2017,10828.96
2018,10862.03
2019,10847.88
2020,10805.94
2021,10746.85
2022,10666.98
2023,10587.32
2024,10563.67
2025,10604.46
2026,10644.01
2027,10640.04
2028,10596.81
2029,10526.05
2030,10445.34
2031,10387
2032,10407.1
2033,10502.88
2034,10561.95
2035,10520.49
2036,10426.71
2037,10350.45
2038,10378.5
2039,10497.21
2040,10493.85
2041,10302.84
2042,10196.6
2043,10297.77
2044,10347.69
2045,10199.71
2046,10026.58
2047,9974.385
2048,10056.46
2049,10221.25
2050,10319.51
2051,10275.7
2052,10184.19
2053,10112.46
2054,10036.33
2055,9952.177
2056,9915.215
2057,9928.016
2058,9884.289
2059,9767.798
2060,9743.403
2061,9860.18
2062,9936.74
2063,9904.115
2064,9913.733
2065,9973.763
2066,9840.558
2067,9513.629
2068,9379.344
2069,9556.564
2070,9750.362
2071,9779.524
2072,9653.898
2073,9464.09
2074,9377.829
2075,9406.585
2076,9388.156
2077,9346.6
2078,9493.968
2079,9726.623
2080,9657.107
2081,9347.936
2082,9235.781
2083,9349.741
2084,9402.807
2085,9301.376
2086,9101.204
2087,8928.67
2088,8930.062
2089,9026.579
2090,9040.697
2091,9034.618
2092,9154.63
2093,9289.153
2094,9245.962
2095,9030.899
2096,8746.188
2097,8604.501
2098,8755.466
2099,8908.24
2100,8779.75
2101,8576.119
2102,8525.938
2103,8565.476
2104,8603.749
2105,8630.379
2106,8654.31
2107,8697.844
2108,8750.503
2109,8738.78
2110,8668.503
2111,8675.878
2112,8750.396
2113,8684.167
2114,8480.33
2115,8373.335
2116,8386.384
2117,8352.991
2118,8242.875
2119,8127.997
2120,8048.687
2121,8022.408
2122,8046.226
2123,8107.81
2124,8197.102
2125,8292.276
2126,8310.346
2127,8197.591
2128,8080.721
2129,8058.99
2130,8027.575
2131,7923.912
2132,7863.515
2133,7876.098
2134,7800.418
2135,7611.826
2136,7495.895
2137,7528.953
2138,7649.927
2139,7731.517
2140,7618.54
2141,7405.388
2142,7321.018
2143,7382.204
2144,7491.044
2145,7489.716
2146,7275.229
2147,7070.945
2148,7079.834
2149,7171.333
2150,7193.728
2151,7094.862
2152,6917.962
2153,6838.765
2154,6905.375
2155,6994.66
2156,7025.213
2157,6971.977
2158,6913.999
2159,6967.288
2160,6990.36
2161,6789.42
2162,6577.259
2163,6597.119
2164,6672.479
2165,6610.668
2166,6441.834
2167,6273.459
2168,6283.581
2169,6453.921
2170,6509.74
2171,6381.365
2172,6200.499
2173,6040.201
2174,5932.898
2175,5929.571
2176,6051.202
2177,6131.075
2178,6050.553
2179,6025.935
2180,6163.835
2181,6198.106
2182,6004.313
2183,5733.734
2184,5583.194
2185,5736.68
2186,5932.773
2187,5713.068
2188,5358.961
2189,5336.424
2190,5439.144
2191,5397.578
2192,5318.123
2193,5296.948
2194,5285.462
2195,5265.886
2196,5277.134
2197,5348.929
2198,5481.589
2199,5505.315
2200,5253.173
2201,5045.359
2202,5158.251
2203,5209.953
2204,5010.775
2205,5007.143
2206,5241.805
2207,5183.819
2208,4826.547
2209,4580.725
2210,4544.276
2211,4632.431
2212,4673.231
2213,4556.62
2214,4427.487
2215,4375.108
2216,4314.442
2217,4237.632
2218,4234.302
2219,4334.375
2220,4509.92
2221,4637.449
2222,4599.684
2223,4442.588
2224,4273.091
2225,4243.455
2226,4357.836
2227,4430.116
2228,4346.539
2229,4084.802
2230,3820.926
2231,3749.716
2232,3783.861
2233,3792.315
2234,3709.934
2235,3609.01
2236,3704.259
2237,3837.75
2238,3646.889
2239,3409.231
2240,3494.02
2241,3537.07
2242,3296.309
2243,3140.358
2244,3190.39
2245,3201.839
2246,3128.79
2247,3066.599
2248,3068.424
2249,3135.368
2250,3159.539
2251,3111.368
2252,3118.78
2253,3115.883
2254,2891.614
2255,2678.248
2256,2786.566
2257,2861.601
2258,2659.41
2259,2573.361
2260,2725.393
2261,2825.562
2262,2764.602
2263,2585.621
2264,2433.331
2265,2434.981
2266,2576.194
2267,2718.333
2268,2607.501
2269,2365.73
2270,2329.398
2271,2357.606
2272,2223.682
2273,2012.086
2274,1901.182
2275,2092.885
2276,2317.593
2277,2069.097
2278,1776.558
2279,1947.528
2280,2153.959
2281,2091.866
2282,1921.447
2283,1833.858
2284,1952.733
2285,2017.83
2286,1814.773
2287,1679.601
2288,1756.819
2289,1803.963
2290,1793.876
2291,1827.264
2292,1773.009
2293,1540.818
2294,1328.946
2295,1256.346
2296,1295.136
2297,1391.595
2298,1463.491
2299,1353.277
2300,1095.171
