400,22909.99
401,22863.04
402,22770.67
403,22680.52
404,22644.62
405,22698
406,22797.71
407,22878.33
408,22879.11
409,22804.05
410,22707
411,22642.63
412,22642.05
413,22690.95
414,22769.87
415,22860.5
416,22949.9
417,23027
418,23080.91
419,23103.04
420,23086.76
421,23025.6
422,22924.79
423,22814.06
424,22726.1
425,22687.42
426,22690.2
427,22714.5
428,22740.85
429,22756.75
430,22755.81
431,22731.96
432,22688.34
433,22647.76
434,22635.44
435,22669.37
436,22727.05
437,22771.89
438,22769.05
439,22712.1
440,22618.96
441,22508.26
442,22398.48
443,22307.87
444,22254.56
445,22249.37
446,22265.1
447,22262.27
448,22204.4
449,22098.74
450,21986.93
451,21911.08
452,21889.62
453,21897.99
454,21907.22
455,21893.32
456,21854.4
457,21794.81
458,21719.81
459,21646.6
460,21600.44
461,21606.11
462,21660.44
463,21717.42
464,21727.67
465,21660.06
466,21549.63
467,21446.31
468,21394.07
469,21382.5
470,21371.39
471,21321.47
472,21228.5
473,21130.87
474,21069.29
475,21068.47
476,21109.09
477,21164.38
478,21208.42
479,21220.2
480,21180.82
481,21073.51
482,20921.95
483,20786.79
484,20729.41
485,20770.6
486,20850.77
487,20901.13
488,20870.37
489,20786.57
490,20700.58
491,20659
492,20661.78
493,20678.72
494,20679.72
495,20654.42
496,20619.29
497,20592.65
498,20584.57
499,20580.8
500,20562.67
501,20514.98
502,20446.25
503,20374.96
504,20319.21
505,20290.68
506,20295.3
507,20338.63
508,20407.6
509,20454.87
510,20429.66
511,20301.77
512,20123.45
513,19967.54
514,19898.7
515,19907.71
516,19945.04
517,19961.97
518,19937.55
519,19881.49
520,19805.08
521,19720.9
522,19644.52
523,19591.87
524,19572.31
525,19563.44
526,19533.27
527,19453.85
528,19341.25
529,19239.33
530,19191.05
531,19200.73
532,19224.72
533,19216.67
534,19153.73
535,19071.31
536,19013.46
537,19011.69
538,19032.13
539,19019.7
540,18925.95
541,18778.96
542,18656.92
543,18636.58
544,18723.26
545,18832.54
546,18874.84
547,18803.88
548,18679.07
549,18575.39
550,18550.76
551,18578.63
552,18606.06
553,18585.13
554,18520.04
555,18447.06
556,18401.72
557,18388.95
558,18378.36
559,18337.89
560,18256.44
561,18168.24
562,18113.29
563,18118.13
564,18151.84
565,18168.29
566,18126.8
567,18032.97
568,17916.53
569,17806.66
570,17720.69
571,17664.57
572,17643.68
573,17655.84
574,17685.67
575,17716.59
576,17734.12
577,17730.62
578,17699.84
579,17639.64
580,17574.04
581,17537.27
582,17559.41
583,17616.4
584,17645.39
585,17584.66
586,17434.22
587,17272.05
588,17180.59
589,17199.34
590,17271.13
591,17325.77
592,17310.7
593,17246.6
594,17173.29
595,17125.96
596,17103.7
597,17088.22
598,17062.08
599,17023.03
600,16981.63
601,16948.61
602,16926.67
603,16906.92
604,16879.64
605,16840.14
606,16796.31
607,16757.98
608,16733.04
609,16720.92
610,16718.6
611,16722.64
612,16726
613,16719.78
614,16695.67
615,16654.62
616,16605.43
617,16557.07
618,16516.19
619,16486.18
620,16470.13
621,16468.77
622,16477.11
623,16489.38
624,16498.24
625,16489.79
626,16448.47
627,16363.65
628,16260.65
629,16180.79
630,16161.9
631,16194.65
632,16234.99
633,16239.26
634,16196.17
635,16132.9
636,16078.61
637,16049.44
638,16036.61
639,16028.51
640,16015.57
641,15994.46
642,15963.11
643,15921.31
644,15878.84
645,15848.83
646,15841.99
647,15846.98
648,15840.33
649,15799.87
650,15726.61
651,15641.68
652,15566.46
653,15510.21
654,15465.83
655,15425.11
656,15387.19
657,15366.67
658,15380.06
659,15432.65
660,15491.56
661,15515.94
662,15474.69
663,15390.17
664,15303.07
665,15249.49
666,15224.46
667,15200.67
668,15152.75
669,15088.63
670,15043.75
671,15053.15
672,15113.98
673,15176.32
674,15187.83
675,15127.94
676,15035.43
677,14955.43
678,14918.33
679,14912.42
680,14918.52
681,14920.05
682,14911.59
683,14890.93
684,14856.89
685,14815.73
686,14776.87
687,14748.47
688,14724.21
689,14688.55
690,14627.09
691,14550.5
692,14492.79
693,14487.94
694,14535.14
695,14586.72
696,14592.12
697,14530.16
698,14437.03
699,14355.41
700,14315.01
701,14308.51
702,14321.93
703,14340.89
704,14348.96
705,14329.25
706,14269.44
707,14186.53
708,14109.09
709,14063.19
710,14051.19
711,14061.9
712,14083.83
713,14102.27
714,14099.93
715,14060.35
716,13991.22
717,13927.06
718,13903.12
719,13923.34
720,13943.25
721,13914.65
722,13821.75
723,13718.44
724,13667.39
725,13703.8
726,13779.76
727,13831.84
728,13813.58
729,13750.64
730,13688.08
731,13662.78
732,13662.65
733,13657.12
734,13619.44
735,13555.99
736,13490.42
737,13444.79
738,13419.99
739,13402.04
740,13377.33
741,13345.21
742,13317.17
743,13304.75
744,13306.72
745,13306.01
746,13284.77
747,13234.9
748,13164.26
749,13082.21
750,13002.17
751,12946.62
752,12939.06
753,12988.4
754,13061.01
755,13115.7
756,13122.36
757,13093.64
758,13052.64
759,13018.71
760,12992.15
761,12967.05
762,12939.29
763,12917.3
764,12914.88
765,12942.84
766,12983.61
767,13003.84
768,12972.7
769,12893.04
770,12791.57
771,12695.09
772,12623.53
773,12590.72
774,12609.35
775,12667.73
776,12726.62
777,12746.03
778,12710.99
779,12641.79
780,12561.21
781,12485.78
782,12421.02
783,12371.29
784,12341.25
785,12336.22
786,12361.56
787,12414.36
788,12468.82
789,12495.29
790,12475.68
791,12431.71
792,12393.7
793,12383.27
794,12384.53
795,12371.42
796,12324.21
797,12257.22
798,12196.22
799,12163.12
800,12154
801,12154.22
802,12150.07
803,12135.73
804,12109.4
805,12070.06
806,12025.24
807,11987.59
808,11968.56
809,11963.04
810,11953.88
811,11924.56
812,11872.66
813,11807.88
814,11740.37
815,11683.17
816,11652.18
817,11662.64
818,11707.2
819,11751.82
820,11761.68
821,11727.65
822,11675.82
823,11634.49
824,11615.36
825,11603.68
826,11582.51
827,11545.68
828,11506.95
829,11482.1
830,11478.69
831,11486.69
832,11493.89
833,11491.43
834,11478.57
835,11455.87
836,11423.58
837,11381.23
838,11328.21
839,11267.27
840,11212.16
841,11178.82
842,11176.93
843,11193.13
844,11208.72
845,11208.45
846,11191.24
847,11159.79
848,11117.96
849,11075.44
850,11043.56
851,11030.77
852,11029.8
853,11028.14
854,11015.95
855,10999.3
856,10990.22
857,10997.68
858,11010.28
859,11008.19
860,10975.31
861,10923.54
862,10877.55
863,10858.59
864,10859.76
865,10860.06
866,10841.05
867,10808.24
868,10780.11
869,10772.86
870,10778.37
871,10774.33
872,10740.95
873,10688.07
874,10644.17
875,10635.17
876,10653.45
877,10668.79
878,10652.97
879,10608.81
880,10561.33
881,10534.65
882,10534.68
883,10553.48
884,10582.66
885,10611.1
886,10625.58
887,10613.83
888,10580.53
889,10544.48
890,10524.06
891,10523.73
892,10535.79
893,10552.26
894,10566.59
895,10573.5
896,10567.98
897,10549.06
898,10519.55
899,10482.54
900,10445.15
901,10418.27
902,10411.94
903,10414.11
904,10391.1
905,10310.6
906,10190.82
907,10100.5
908,10107.16
909,10203.18
910,10304.74
911,10327.94
912,10261.33
913,10167.75
914,10111.19
915,10107.28
916,10121.85
917,10119.55
918,10088.7
919,10042.05
920,9993.225
921,9951.119
922,9919.777
923,9902.781
924,9898.037
925,9897.682
926,9893.688
927,9879.521
928,9850.155
929,9801.189
930,9740.477
931,9687.997
932,9663.23
933,9665.11
934,9672.697
935,9665.338
936,9644.026
937,9630.17
938,9644.654
939,9683.787
940,9721.399
941,9731.65
942,9708.614
943,9663.98
944,9610.004
945,9558.974
946,9523.219
947,9514.197
948,9529.883
949,9557.289
950,9583.313
951,9597.368
952,9590.813
953,9556.664
954,9509.966
955,9481.972
956,9500.365
957,9543.022
958,9553.225
959,9480.576
960,9356.104
961,9264.003
962,9280.121
963,9382.416
964,9489.014
965,9524.963
966,9489.914
967,9425.998
968,9372.543
969,9340.297
970,9324.922
971,9321.248
972,9318.336
973,9302.466
974,9263.438
975,9216.876
976,9189.875
977,9203.667
978,9240.74
979,9267.89
980,9258.461
981,9224.558
982,9192.512
983,9183.274
984,9189.329
985,9193.754
986,9183.742
987,9165.895
988,9152.543
989,9152.714
990,9161.565
991,9170.621
992,9173.902
993,9174.741
994,9178.626
995,9186.045
996,9181.043
997,9144.347
998,9069.809
999,8989.153
1000,8940.778
1001,8944.861
1002,8975.549
1003,8999.941
1004,8998.813
1005,8983.138
1006,8967.932
1007,8962.93
1008,8953.694
1009,8918.858
1010,8846.739
1011,8764.32
1012,8708.193
1013,8703.871
1014,8738.702
1015,8791.811
1016,8843.582
1017,8877.985
1018,8879.73
1019,8844.087
1020,8793.185
1021,8753.253
1022,8739.987
1023,8746.271
1024,8762.055
1025,8779.898
1026,8797.198
1027,8811.839
1028,8819.573
1029,8812.814
1030,8783.984
1031,8737.016
1032,8691.062
1033,8665.766
1034,8666.866
1035,8684.63
1036,8708.531
1037,8727.882
1038,8731.843
1039,8710.625
1040,8670.034
1041,8627.893
1042,8601.328
1043,8596.386
1044,8612.063
1045,8645.781
1046,8681.99
1047,8698.457
1048,8677.296
1049,8630.347
1050,8581.792
1051,8552.23
1052,8543.317
1053,8550.452
1054,8568.617
1055,8591.024
1056,8610.458
1057,8621.644
1058,8625.487
1059,8624.133
1060,8619.365
1061,8612.138
1062,8603.263
1063,8594.589
1064,8589.941
1065,8593.268
1066,8603.651
1067,8612.904
1068,8612.588
1069,8604.45
1070,8602.081
1071,8618.882
1072,8652.368
1073,8685.743
1074,8703.407
1075,8711.271
1076,8730.137
1077,8777.778
1078,8842.685
1079,8897.957
1080,8922.658
1081,8934.347
1082,8965.631
1083,9038.604
1084,9127.267
1085,9191.899
1086,9206.749
1087,9191.91
1088,9176.83
1089,9177.605
1090,9178.656
1091,9159.973
1092,9115.088
1093,9060.957
1094,9016.494
1095,8987.533
1096,8963.351
1097,8932.62
1098,8893.101
1099,8850.977
1100,8812.297
1101,8777.618
1102,8743.788
1103,8708.653
1104,8678.554
1105,8663.893
1106,8671.417
1107,8688.101
1108,8694.315
1109,8677.444
1110,8650.373
1111,8631.737
1112,8631.79
1113,8640.009
1114,8642.854
1115,8636.805
1116,8635.456
1117,8653.558
1118,8689.715
1119,8723.329
1120,8733.651
1121,8715.868
1122,8678.334
1123,8630.062
1124,8582.711
1125,8549.437
1126,8539.601
1127,8539.091
1128,8524.884
1129,8481.563
1130,8423.815
1131,8373.719
1132,8340.985
1133,8303.76
1134,8235.58
1135,8135.665
1136,8046.361
1137,8012.731
1138,8040.875
1139,8093.294
1140,8131.816
1141,8140.962
1142,8122.172
1143,8079.401
1144,8033.856
1145,8015.114
1146,8042.435
1147,8084.139
1148,8092.958
1149,8042.362
1150,7968.414
1151,7918.696
1152,7916.398
1153,7938.667
1154,7957.914
1155,7958.84
1156,7940.978
1157,7905.556
1158,7866.019
1159,7845.261
1160,7861.129
1161,7888.54
1162,7881.547
1163,7810.636
1164,7724.181
1165,7693.381
1166,7755.265
1167,7851.986
1168,7909.949
1169,7897.564
1170,7853.799
1171,7822.888
1172,7812.842
1173,7794.07
1174,7738.909
1175,7661.897
1176,7604.521
1177,7600.532
1178,7633.238
1179,7666.757
1180,7674.803
1181,7664.581
1182,7650.521
1183,7640.78
1184,7630.933
1185,7615.225
1186,7593.512
1187,7572.327
1188,7558.36
1189,7555.245
1190,7564.431
1191,7584.694
1192,7597.097
1193,7575.369
1194,7508.757
1195,7443.248
1196,7437.516
1197,7509.79
1198,7596.219
1199,7624.711
1200,7576.199
1201,7493.569
1202,7421.372
1203,7381.012
1204,7378.243
1205,7414.313
1206,7464.703
1207,7495.147
1208,7483.94
1209,7449.776
1210,7419.351
1211,7410.33
1212,7424.615
1213,7462.054
1214,7511.96
1215,7553.311
1216,7566.795
1217,7553.279
1218,7524.665
1219,7492.028
1220,7462.075
1221,7440.249
1222,7431.082
1223,7436.929
1224,7459.537
1225,7489.365
1226,7502.368
1227,7476.251
1228,7424.35
1229,7385.074
1230,7389.664
1231,7423.171
1232,7453.52
1233,7457.893
1234,7441.003
1235,7412.684
1236,7386.056
1237,7379.253
1238,7408.837
1239,7458.569
1240,7485.477
1241,7454.49
1242,7390.907
1243,7345.574
1244,7351.334
1245,7381.303
1246,7396.634
1247,7382.672
1248,7364.526
1249,7369.584
1250,7399.843
1251,7435.645
1252,7458.869
1253,7467.36
1254,7465.882
1255,7459.415
1256,7453.586
1257,7454.057
1258,7460.358
1259,7462.229
1260,7449.416
1261,7426.196
1262,7408.593
1263,7409.87
1264,7423.126
1265,7433.451
1266,7430.639
1267,7418.348
1268,7402.791
1269,7391.583
1270,7394.305
1271,7419.111
1272,7453.853
1273,7472.287
1274,7454.465
1275,7415.085
1276,7380.154
1277,7368.435
1278,7381.674
1279,7418.865
1280,7469.961
1281,7514.831
1282,7534.567
1283,7526.547
1284,7496.872
1285,7455.714
1286,7428.43
1287,7443.719
1288,7504.668
1289,7570.729
1290,7599.153
1291,7581.199
1292,7535.531
1293,7481.405
1294,7436.774
1295,7419.12
1296,7436.4
1297,7472.725
1298,7508.698
1299,7530.788
1300,7532.135
1301,7508.325
1302,7473.476
1303,7451.396
1304,7457.649
1305,7478.31
1306,7493.172
1307,7496.297
1308,7503.447
1309,7530.179
1310,7565.95
1311,7582.217
1312,7559.814
1313,7525.619
1314,7519.894
1315,7557.146
1316,7601.958
1317,7615.254
1318,7595.331
1319,7572.484
1320,7573.533
1321,7598.247
1322,7636.463
1323,7676.516
1324,7703.286
1325,7701.835
1326,7673.663
1327,7636.766
1328,7609.051
1329,7602.394
1330,7626.104
1331,7679.784
1332,7737.125
1333,7768.372
1334,7769.093
1335,7763.072
1336,7772.399
1337,7794.076
1338,7813.318
1339,7820.186
1340,7818.919
1341,7815.97
1342,7807.045
1343,7775.284
1344,7708.879
1345,7642.952
1346,7635.412
1347,7711.542
1348,7800.75
1349,7817.201
1350,7746.949
1351,7659.648
1352,7621.316
1353,7631.247
1354,7657.222
1355,7675.129
1356,7684.096
1357,7687.551
1358,7696.896
1359,7732.248
1360,7807.627
1361,7890.211
1362,7926.862
1363,7893.612
1364,7839.717
1365,7823.83
1366,7861
1367,7923.827
1368,7984.705
1369,8025.831
1370,8033.109
1371,8006.211
1372,7973.975
1373,7967.233
1374,7987.124
1375,8010.419
1376,8018.793
1377,8021.419
1378,8035.616
1379,8062.972
1380,8078.24
1381,8056.675
1382,8011.022
1383,7978.516
1384,7982.946
1385,7997.087
1386,7982.865
1387,7937.353
1388,7903.463
1389,7920.413
1390,7971.371
1391,8012.193
1392,8011.857
1393,7974.351
1394,7909.882
1395,7840.256
1396,7798.288
1397,7808.604
1398,7848.586
1399,7879.802
1400,7882.479
1401,7870.377
1402,7859.339
1403,7848.235
1404,7824.864
1405,7784.882
1406,7751.83
1407,7754.447
1408,7792.961
1409,7833.88
1410,7846.967
1411,7837.954
1412,7827.518
1413,7829.968
1414,7845.947
1415,7873.892
1416,7905.696
1417,7928.377
1418,7932.375
1419,7921.979
1420,7904.92
1421,7891.881
1422,7897.275
1423,7931.296
1424,7972.188
1425,7984.406
1426,7951.543
1427,7898.284
1428,7853.643
1429,7832.505
1430,7839.51
1431,7871.465
1432,7897.506
1433,7881.695
1434,7828.696
1435,7790.423
1436,7810.06
1437,7859.153
1438,7882.039
1439,7853.422
1440,7803.933
1441,7767.911
1442,7754.208
1443,7756.202
1444,7769.66
1445,7797.925
1446,7844.966
1447,7900.088
1448,7939.087
1449,7943.196
1450,7920.975
1451,7888.811
1452,7863.662
1453,7863.237
1454,7900.046
1455,7949.059
1456,7969.186
1457,7945.857
1458,7916.873
1459,7922.621
1460,7962.844
1461,8011.947
1462,8047.461
1463,8057.089
1464,8031.779
1465,7989.5
1466,7971.668
1467,8005.559
1468,8057.605
1469,8079.792
1470,8057.476
1471,8015.178
1472,7976.258
1473,7944.447
1474,7916.703
1475,7897.304
1476,7901.907
1477,7943.699
1478,8008.595
1479,8069.684
1480,8105.259
1481,8104.396
1482,8060.879
1483,8005.186
1484,7990.023
1485,8034.869
1486,8072.217
1487,8027.084
1488,7921.218
1489,7849.514
1490,7875.529
1491,7954.173
1492,8019.903
1493,8042.818
1494,8025.759
1495,7977.295
1496,7924.021
1497,7896.187
1498,7897.938
1499,7905.017
1500,7897.158
1501,7880.495
1502,7869.033
1503,7873.939
1504,7902.793
1505,7958.01
1506,8014.258
1507,8036.953
1508,8016.996
1509,7981.612
1510,7957.903
1511,7953.709
1512,7969.212
1513,7998.25
1514,8024.732
1515,8033.466
1516,8022.284
1517,7994.785
1518,7964.734
1519,7963.07
1520,8014.228
1521,8079.336
1522,8090.712
1523,8034.261
1524,7992.123
1525,8041.768
1526,8140.617
1527,8188.678
1528,8142.425
1529,8063.031
1530,8017.482
1531,8026.417
1532,8087.653
1533,8178.423
1534,8238.414
1535,8214.174
1536,8142.208
1537,8102.196
1538,8126.175
1539,8159.644
1540,8147.323
1541,8099.692
1542,8057.764
1543,8043.639
1544,8046.49
1545,8054.558
1546,8073.094
1547,8114.592
1548,8175.523
1549,8226.621
1550,8241.935
1551,8232.981
1552,8226.138
1553,8233.614
1554,8246.87
1555,8258.068
1556,8273.06
1557,8302.078
1558,8334.397
1559,8332.146
1560,8272.341
1561,8215.618
1562,8245.648
1563,8355.254
1564,8434.979
1565,8404.487
1566,8329.238
1567,8309.041
1568,8359.13
1569,8413.947
1570,8427.281
1571,8430.616
1572,8468.272
1573,8524.583
1574,8536.398
1575,8473.614
1576,8400.175
1577,8389.617
1578,8439.989
1579,8501.201
1580,8538.469
1581,8551.724
1582,8547.029
1583,8544.259
1584,8569.808
1585,8618.412
1586,8632.319
1587,8565.13
1588,8471.292
1589,8441.645
1590,8495.802
1591,8563.662
1592,8586.592
1593,8582.655
1594,8589.537
1595,8613.006
1596,8628.905
1597,8623.238
1598,8617.3
1599,8636.133
1600,8665.11
1601,8662.756
1602,8618.162
1603,8587.797
1604,8626.522
1605,8704.881
1606,8753.99
1607,8755.678
1608,8768.199
1609,8837.498
1610,8913.213
1611,8917.624
1612,8860.578
1613,8841.802
1614,8922.354
1615,9022.027
1616,9039.722
1617,8980.746
1618,8923.271
1619,8912.73
1620,8922.834
1621,8922.763
1622,8914.755
1623,8915.099
1624,8918.552
1625,8891.073
1626,8812.104
1627,8727.787
1628,8699.146
1629,8732.783
1630,8789.459
1631,8833.063
1632,8839.283
1633,8790.89
1634,8717.122
1635,8670.682
1636,8676.09
1637,8715.265
1638,8764.757
1639,8792.686
1640,8767.103
1641,8703.876
1642,8661.435
1643,8673.438
1644,8705.146
1645,8715.358
1646,8702.887
1647,8686.917
1648,8679.948
1649,8684.531
1650,8700
1651,8714.983
1652,8716.03
1653,8704.521
1654,8693.886
1655,8691.878
1656,8692.477
1657,8688.41
1658,8677.293
1659,8659.048
1660,8639.62
1661,8632.218
1662,8647.896
1663,8688.544
1664,8751.969
1665,8812.166
1666,8828.237
1667,8793.166
1668,8758.708
1669,8767.056
1670,8781.795
1671,8745.602
1672,8675.025
1673,8651.195
1674,8713.558
1675,8798.392
1676,8836.992
1677,8830.967
1678,8811.689
1679,8800.254
1680,8805.954
1681,8832.549
1682,8868.751
1683,8899.489
1684,8901.75
1685,8849.341
1686,8770.48
1687,8769.238
1688,8902.432
1689,9025.994
1690,8968.66
1691,8802.639
1692,8755.687
1693,8899.587
1694,9047.277
1695,9040.081
1696,8952.796
1697,8916.747
1698,8948.715
1699,8982.159
1700,8979.366
1701,8958.389
1702,8940.704
1703,8935.598
1704,8947.771
1705,8968.075
1706,8976.662
1707,8968.99
1708,8970.219
1709,8998.444
1710,9018.932
1711,8984.351
1712,8912.626
1713,8873.052
1714,8896.551
1715,8938.395
1716,8955.165
1717,8952.325
1718,8949.477
1719,8952.756
1720,8958.123
1721,8968.057
1722,8997.171
1723,9053.005
1724,9105.216
1725,9115.088
1726,9075.966
1727,9003.784
1728,8933.083
1729,8927.372
1730,9017.932
1731,9098.701
1732,9046.715
1733,8921.022
1734,8887.371
1735,8984.103
1736,9073.808
1737,9056.45
1738,8993.554
1739,8968.094
1740,8971.529
1741,8952.268
1742,8911.313
1743,8907.913
1744,8972.813
1745,9058.051
1746,9110.559
1747,9120.741
1748,9096.076
1749,9056.825
1750,9033.889
1751,9038.508
1752,9044.899
1753,9034.227
1754,9035.021
1755,9083.514
1756,9159.739
1757,9209.961
1758,9215.918
1759,9206.687
1760,9196.864
1761,9149.706
1762,9033.951
1763,8919.429
1764,8912.804
1765,9013.076
1766,9123.007
1767,9182.657
1768,9208.842
1769,9224.104
1770,9239.379
1771,9259.113
1772,9252.987
1773,9173.024
1774,9047.663
1775,8995.887
1776,9073.61
1777,9167.819
1778,9168.733
1779,9126.545
1780,9137.807
1781,9187.808
1782,9184.02
1783,9115.033
1784,9087.804
1785,9170.976
1786,9292.385
1787,9364.294
1788,9367.565
1789,9312.195
1790,9237.794
1791,9207.058
1792,9236.563
1793,9269.123
1794,9260.394
1795,9228.538
1796,9202.722
1797,9201.288
1798,9237.085
1799,9306.16
1800,9390.548
1801,9464.266
1802,9489.395
1803,9437.978
1804,9317.032
1805,9151.366
1806,9036.731
1807,9087.084
1808,9255.862
1809,9373.835
1810,9365.736
1811,9297.272
1812,9227.953
1813,9168.988
1814,9126.463
1815,9123.832
1816,9186.594
1817,9291.315
1818,9382.873
1819,9431.368
1820,9438.245
1821,9418.599
1822,9413.747
1823,9451.525
1824,9485.821
1825,9461.378
1826,9417.938
1827,9439.28
1828,9512.996
1829,9538.335
1830,9482.434
1831,9429.714
1832,9441.524
1833,9476.102
1834,9479.997
1835,9444.785
1836,9380.14
1837,9319.696
1838,9310.736
1839,9349.087
1840,9372.988
1841,9344.171
1842,9276.165
1843,9193.69
1844,9139.577
1845,9151.904
1846,9211.147
1847,9275.759
1848,9318.18
1849,9321.628
1850,9301.934
1851,9312.682
1852,9375.967
1853,9446.98
1854,9474.24
1855,9411.095
1856,9239.798
1857,9116.244
1858,9235.759
1859,9468.222
1860,9484.111
1861,9279.871
1862,9201.149
1863,9375.667
1864,9519.843
1865,9436.896
1866,9307.48
1867,9330.316
1868,9445.267
1869,9521.34
1870,9524.368
1871,9471.388
1872,9386.54
1873,9299.92
1874,9254.15
1875,9307.882
1876,9452.593
1877,9533.95
1878,9445.931
1879,9318.46
1880,9299.753
1881,9341.444
1882,9334.009
1883,9268.43
1884,9194.043
1885,9166.285
1886,9243.365
1887,9392.135
1888,9454.96
1889,9371.806
1890,9307.82
1891,9384.05
1892,9479.029
1893,9457.727
1894,9382.235
1895,9368.691
1896,9434.371
1897,9542.587
1898,9607.672
1899,9511.406
1900,9282.741
1901,9118.234
1902,9112.13
1903,9170.304
1904,9222.971
1905,9307.843
1906,9451.194
1907,9571.16
1908,9583.338
1909,9542.858
1910,9543.445
1911,9563.477
1912,9524.496
1913,9431.897
1914,9355.385
1915,9325.017
1916,9325.118
1917,9347.225
1918,9397.852
1919,9464.821
1920,9491.085
1921,9441.762
1922,9374.336
1923,9346.207
1924,9324.673
1925,9262.869
1926,9201.834
1927,9210.322
1928,9255.335
1929,9251.144
1930,9242.957
1931,9376.058
1932,9579.111
1933,9541.081
1934,9222.25
1935,9010.795
1936,9111.312
1937,9277.182
1938,9300.872
1939,9242.442
1940,9192.107
1941,9175.061
1942,9203.081
1943,9300.129
1944,9474.597
1945,9588.431
1946,9465.49
1947,9229.188
1948,9163.908
1949,9261.788
1950,9291.709
1951,9202.34
1952,9128.76
1953,9122.64
1954,9116.388
1955,9090.257
1956,9118.205
1957,9235.97
1958,9377.06
1959,9450.3
1960,9333.629
1961,8998.83
1962,8777.09
1963,8956.063
1964,9234.548
1965,9223.795
1966,9052.954
1967,9004.186
1968,9037.228
1969,8981.249
1970,8887.694
1971,8926.112
1972,9091.409
1973,9253
1974,9311.619
1975,9203.039
1976,8993.545
1977,8883.665
1978,8936.754
1979,9031.931
1980,9071.779
1981,9014.616
1982,8895.313
1983,8880.605
1984,9019.261
1985,9068.276
1986,8909.881
1987,8859.708
1988,9117.48
1989,9295.305
1990,9073.837
1991,8823.756
1992,8924.396
1993,9075.239
1994,8906.929
1995,8676.661
1996,8756.897
1997,8974.23
1998,9002.386
1999,8903.929
2000,8882.644
2001,8900.754
2002,8820.06
2003,8702.981
2004,8711.368
2005,8839.388
2006,8973.438
2007,8997.808
2008,8810.187
2009,8522.66
2010,8404.283
2011,8498.95
2012,8652.978
2013,8766.156
2014,8797.917
2015,8762.325
2016,8725.753
2017,8689.402
2018,8580.802
2019,8424.202
2020,8363.777
2021,8424.24
2022,8466.26
2023,8451.95
2024,8499.362
2025,8632.674
2026,8719.873
2027,8679.445
2028,8530.326
2029,8354
2030,8319.068
2031,8467.858
2032,8610.766
2033,8620.831
2034,8525.923
2035,8388.35
2036,8303.914
2037,8324.904
2038,8412.706
2039,8482.813
2040,8382.541
2041,8119.158
2042,8032.435
2043,8254.818
2044,8422.985
2045,8316.304
2046,8123.562
2047,8006.646
2048,7972.631
2049,8017.619
2050,8152.423
2051,8314.796
2052,8295.571
2053,8060.485
2054,7949.043
2055,8103.793
2056,8209.934
2057,8105.891
2058,8008.978
2059,8040.695
2060,8077.868
2061,8066.8
2062,8115.726
2063,8218.921
2064,8159.771
2065,7905.731
2066,7740.608
2067,7804.961
2068,7985.433
2069,8142.893
2070,8134.94
2071,7972.285
2072,7861.819
2073,7872.211
2074,7889.646
2075,7848.968
2076,7753.761
2077,7645.471
2078,7598.153
2079,7623.777
2080,7676.691
2081,7763.807
2082,7927.914
2083,8031.42
2084,7824.048
2085,7457.286
2086,7334.514
2087,7455.945
2088,7578.829
2089,7621.521
2090,7598.69
2091,7552.91
2092,7530.119
2093,7504.076
2094,7437.387
2095,7417.28
2096,7523.676
2097,7551.657
2098,7306.366
2099,7050.243
2100,7052.465
2101,7130.136
2102,7086.428
2103,7016.091
2104,7039.611
2105,7192.532
2106,7405.964
2107,7411.883
2108,7121.869
2109,6830.333
2110,6720.029
2111,6734.639
2112,6820.892
2113,6954.444
2114,7062.959
2115,7028.054
2116,6880.641
2117,6778.806
2118,6760.658
2119,6772.454
2120,6758.738
2121,6680.463
2122,6629.698
2123,6716.179
2124,6762.55
2125,6576.589
2126,6433.946
2127,6590.288
2128,6690.043
2129,6441.785
2130,6161.172
2131,6119.813
2132,6240.011
2133,6399.67
2134,6484.474
2135,6444.099
2136,6316.391
2137,6168.528
2138,6084.784
2139,6023.715
2140,5859.063
2141,5700.493
2142,5770.638
2143,5967.131
2144,6066.356
2145,6068.063
2146,6046.688
2147,6047.655
2148,6075.385
2149,6031.604
2150,5896.348
2151,5869.75
2152,6007.556
2153,6077.22
2154,5951.259
2155,5672.016
2156,5401.068
2157,5375.859
2158,5542.681
2159,5667.9
2160,5663.492
2161,5539.79
2162,5450.957
2163,5507.462
2164,5464.634
2165,5197.93
2166,5120.627
2167,5390.478
2168,5538.689
2169,5386.043
2170,5214.343
2171,5181.704
2172,5290.572
2173,5400.516
2174,5323.07
2175,5179.198
2176,5171.707
2177,5220.247
2178,5195.83
2179,5089.464
2180,4962.707
2181,4972.383
2182,5084.771
2183,4989.029
2184,4719.573
2185,4638.007
2186,4686.85
2187,4580.1
2188,4480.498
2189,4641.818
2190,4810.68
2191,4738.541
2192,4612.834
2193,4608.612
2194,4727.369
2195,4854.35
2196,4773.041
2197,4549.931
2198,4447.758
2199,4391.14
2200,4203.249
2201,4127.093
2202,4351.542
2203,4445.449
2204,4214.656
2205,4173.908
2206,4388.684
2207,4291.403
2208,3987.475
2209,4063.818
2210,4289.261
2211,4150.017
2212,3822.747
2213,3648.323
2214,3822.002
2215,4192.975
2216,4080.399
2217,3550.673
2218,3461.888
2219,3773.822
2220,3897.834
2221,3755.214
2222,3487.896
2223,3282.167
2224,3224.413
2225,3170.138
2226,3078.552
2227,3069.857
2228,3148.274
2229,3224.553
2230,3233.429
2231,3153.678
2232,3093.979
2233,3131.239
2234,3196.373
2235,3202.726
2236,3083.62
2237,3020.621
2238,3293.05
2239,3518.494
2240,3251.444
2241,2921.623
2242,2902.754
2243,3016.602
2244,3085.115
2245,3024.654
2246,2911.575
2247,2884.171
2248,2825.573
2249,2636.203
2250,2565.16
2251,2717.822
2252,2849.741
2253,2822.081
2254,2648.587
2255,2535.839
2256,2671.358
2257,2741.764
2258,2504.447
2259,2174.847
2260,1988.235
2261,2100.126
2262,2316.638
2263,2304.558
2264,2201.427
2265,2228.304
2266,2390.887
2267,2477.596
2268,2074.863
2269,1529.333
2270,1600.535
2271,1964.01
2272,2080.03
2273,2049.327
2274,2044.118
2275,2147.336
2276,2220.671
2277,2027.2
2278,1806.258
2279,1809.813
2280,1733.249
2281,1499.58
2282,1510.214
2283,1711.019
2284,1721.386
2285,1538.179
2286,1327.063
2287,1303.469
2288,1437.398
2289,1384.104
2290,1310.467
2291,1588.951
2292,1680.895
2293,1251.862
2294,1188.824
2295,1627.245
2296,1697.742
2297,1484.344
2298,1493.2
2299,1542.638
2300,1385.71
