400,47196.98
401,47108.21
402,47106.7
403,47148.97
404,47185.56
405,47177.44
406,47133.01
407,47074.35
408,47022.02
409,46974.54
410,46913.53
411,46820.44
412,46694.77
413,46570.98
414,46487.38
415,46473.15
416,46509.82
417,46563.22
418,46600.53
419,46610.38
420,46599.62
421,46575.61
422,46545.31
423,46514.77
424,46489.91
425,46476.24
426,46476.89
427,46494.21
428,46529.44
429,46564.55
430,46564.54
431,46494.11
432,46341.8
433,46146.93
434,45955.12
435,45807.02
436,45716.15
437,45686.45
438,45719.99
439,45785.57
440,45823.45
441,45773.55
442,45617.53
443,45421.61
444,45261.95
445,45198.49
446,45207.61
447,45238.59
448,45243.15
449,45207.63
450,45145.57
451,45071.15
452,44995.77
453,44925.73
454,44866.78
455,44820.11
456,44766.3
457,44680.18
458,44540.12
459,44367.29
460,44211.81
461,44123.41
462,44110.4
463,44117.87
464,44085.79
465,43975.99
466,43829.57
467,43705.43
468,43654.73
469,43657.67
470,43655.64
471,43591.29
472,43454.19
473,43291.06
474,43151.8
475,43070.31
476,43036.7
477,43033.64
478,43042.9
479,43039.71
480,42996.65
481,42888.51
482,42731.26
483,42578.45
484,42484.48
485,42466.79
486,42469.67
487,42429.02
488,42300.3
489,42128.08
490,41982.38
491,41926.46
492,41948.41
493,41987.79
494,41984.52
495,41915.65
496,41808.77
497,41694.94
498,41594.83
499,41498.52
500,41390.44
501,41259.71
502,41127.3
503,41027.62
504,40992.85
505,41015.73
506,41053.83
507,41063.89
508,41023.45
509,40948.13
510,40857.55
511,40765.92
512,40665.75
513,40544.11
514,40391.53
515,40230.68
516,40101.72
517,40043.19
518,40049.04
519,40063.77
520,40029.75
521,39918.07
522,39764.33
523,39612.8
524,39499.41
525,39420.07
526,39358.57
527,39299.68
528,39238.81
529,39178.07
530,39119.39
531,39055.09
532,38965.49
533,38830.38
534,38651.09
535,38482.55
536,38387.56
537,38408.16
538,38478.33
539,38496.96
540,38373.75
541,38142.02
542,37916.08
543,37808.76
544,37845.88
545,37943.96
546,38013.11
547,37994.93
548,37907.69
549,37781.05
550,37642.29
551,37507.1
552,37387.48
553,37294.86
554,37235.46
555,37212.16
556,37227.14
557,37260.67
558,37267.94
559,37203.11
560,37052.41
561,36871.42
562,36724.58
563,36658.2
564,36641.9
565,36624.89
566,36562.25
567,36459.09
568,36346.55
569,36254.78
570,36191.18
571,36141.5
572,36090.79
573,36033.96
574,35983.04
575,35951.68
576,35942.46
577,35921.98
578,35849.53
579,35695.31
580,35498
581,35323.1
582,35230.97
583,35215.72
584,35223.98
585,35202.65
586,35136.07
587,35055.93
588,34996.66
589,34972.19
590,34950.08
591,34891.7
592,34770.69
593,34612.1
594,34454.37
595,34332.76
596,34258.48
597,34231.1
598,34248.76
599,34286.73
600,34301
601,34248
602,34123.97
603,33982.45
604,33881.14
605,33847.98
606,33836.42
607,33788.58
608,33665.39
609,33512.73
610,33400.43
611,33387.66
612,33445.87
613,33502.47
614,33488.45
615,33396.86
616,33273.48
617,33164.92
618,33092.64
619,33042.61
620,32998.16
621,32948.25
622,32895.02
623,32842.55
624,32792.59
625,32737.32
626,32666.52
627,32572.84
628,32470.21
629,32382.01
630,32329.38
631,32303.11
632,32271.62
633,32203.77
634,32095.46
635,31974.69
636,31871.03
637,31802.35
638,31763.92
639,31748.47
640,31744.81
641,31729.1
642,31675.07
643,31565.04
644,31427.27
645,31305.44
646,31238.7
647,31225.02
648,31239.75
649,31258.59
650,31265.23
651,31250.29
652,31204.84
653,31127.02
654,31024.44
655,30905.42
656,30779.97
657,30661.87
658,30565.3
659,30498.84
660,30452.13
661,30410.82
662,30362.61
663,30306.31
664,30244.58
665,30179.72
666,30111.09
667,30036.44
668,29954.03
669,29871.09
670,29802.22
671,29761.65
672,29744.33
673,29721.33
674,29662.55
675,29561.68
676,29456.84
677,29390.85
678,29384.73
679,29397.02
680,29375.28
681,29283.16
682,29155.69
683,29047.8
684,29004.77
685,29005.14
686,28998.87
687,28940.47
688,28836.16
689,28725.17
690,28645.52
691,28602.58
692,28571.26
693,28525.83
694,28459.1
695,28388.78
696,28334.15
697,28298.33
698,28252.8
699,28165.49
700,28027.13
701,27894.11
702,27834.37
703,27890.67
704,27998.21
705,28063.5
706,28010.76
707,27876.1
708,27739.94
709,27674.27
710,27670.28
711,27673.13
712,27630.92
713,27543.06
714,27450.15
715,27392.57
716,27379.14
717,27383.41
718,27377.34
719,27339.98
720,27261.24
721,27132.14
722,26962.83
723,26804.84
724,26714.8
725,26723.26
726,26781.93
727,26827.83
728,26810.8
729,26734.98
730,26619.16
731,26482.99
732,26352.05
733,26254.08
734,26212.57
735,26214.37
736,26227.28
737,26220.78
738,26186.56
739,26131.94
740,26064.25
741,25984.68
742,25888.71
743,25772.13
744,25649.8
745,25560.15
746,25542.41
747,25599.12
748,25672.59
749,25699.92
750,25648.09
751,25548.9
752,25442.55
753,25357.79
754,25290.33
755,25229.94
756,25169.78
757,25116.19
758,25078.77
759,25064.93
760,25071.05
761,25089.94
762,25112.46
763,25115.77
764,25071.15
765,24955.35
766,24796.45
767,24651.04
768,24571.76
769,24557.73
770,24570.08
771,24570.72
772,24549.06
773,24519.15
774,24495.36
775,24477.3
776,24447.93
777,24389.77
778,24302.43
779,24209.66
780,24136.73
781,24091.96
782,24053.79
783,23997.8
784,23914.86
785,23829.59
786,23770.98
787,23753.8
788,23753.53
789,23738.99
790,23690
791,23624.31
792,23567.84
793,23538.9
794,23522.97
795,23496.62
796,23441.67
797,23367.99
798,23294.89
799,23239.71
800,23206.37
801,23193.3
802,23197.19
803,23200.33
804,23177.77
805,23107.78
806,23002.43
807,22894.34
808,22814.41
809,22767.72
810,22740.66
811,22719.41
812,22692.99
813,22652.79
814,22590.78
815,22509.18
816,22420.57
817,22337.84
818,22271.96
819,22231.64
820,22225.12
821,22246.53
822,22270.65
823,22271.24
824,22237.42
825,22182.93
826,22123.54
827,22068.59
828,22015.47
829,21960.37
830,21902.65
831,21848.54
832,21805.13
833,21773.25
834,21738.31
835,21683.49
836,21602.73
837,21520.4
838,21466.11
839,21456.35
840,21465.14
841,21457.93
842,21411.06
843,21340.76
844,21272.49
845,21225.32
846,21191.52
847,21156.36
848,21108.63
849,21053.83
850,21002.49
851,20963.09
852,20933.36
853,20907.4
854,20879.93
855,20849.3
856,20815.21
857,20777.85
858,20740.79
859,20708.95
860,20685.97
861,20665.75
862,20637.7
863,20592.58
864,20531.99
865,20462.95
866,20392.53
867,20328.36
868,20278.36
869,20249.66
870,20241.76
871,20249.65
872,20267.52
873,20280.3
874,20267.18
875,20209.41
876,20114.06
877,20005.59
878,19908.09
879,19838.32
880,19807.74
881,19825.89
882,19876.46
883,19923.61
884,19933.21
885,19903.98
886,19860.75
887,19827.73
888,19807.92
889,19786.6
890,19749.49
891,19698.79
892,19651.06
893,19622.53
894,19615.17
895,19618.05
896,19620.08
897,19615.36
898,19602.74
899,19581.5
900,19553.81
901,19524.78
902,19499.19
903,19473.12
904,19434.06
905,19370.15
906,19291.68
907,19231.11
908,19220.01
909,19249.34
910,19268.86
911,19228.57
912,19124.82
913,19001.39
914,18902.9
915,18845.57
916,18816.38
917,18801.1
918,18787.16
919,18763.73
920,18720.6
921,18660.69
922,18600.32
923,18555.84
924,18529.96
925,18511.58
926,18489.22
927,18455.78
928,18408.58
929,18345.72
930,18278.28
931,18230.16
932,18224.25
933,18250.32
934,18266.22
935,18230.68
936,18145.76
937,18054.42
938,17999.37
939,17990.46
940,18007.48
941,18029.32
942,18038.13
943,18018.96
944,17958.6
945,17872.59
946,17800.86
947,17781.31
948,17808.5
949,17841.65
950,17841.48
951,17804.25
952,17753.76
953,17713.39
954,17691.07
955,17683.34
956,17685.66
957,17682.54
958,17650.86
959,17571.11
960,17466.94
961,17390.29
962,17387.31
963,17438.34
964,17483.41
965,17468.34
966,17399.61
967,17318.27
968,17261.79
969,17232.69
970,17215.13
971,17195.35
972,17177.89
973,17176.17
974,17199.56
975,17227.47
976,17226.06
977,17169.15
978,17081.35
979,17007.88
980,16984.72
981,16993.28
982,16994.94
983,16959.6
984,16902.07
985,16852
986,16832.46
987,16835.5
988,16844.02
989,16843.68
990,16831.74
991,16808.53
992,16774.9
993,16733.59
994,16687.83
995,16640.77
996,16595.51
997,16555.1
998,16520.76
999,16488.41
1000,16453.02
1001,16413.88
1002,16381.18
1003,16366.7
1004,16372.06
1005,16376.29
1006,16355.41
1007,16293.99
1008,16215.69
1009,16155.3
1010,16138.86
1011,16157.29
1012,16192.78
1013,16227.94
1014,16246.75
1015,16233.54
1016,16182.39
1017,16116.38
1018,16063.85
1019,16040.86
1020,16032.31
1021,16018.28
1022,15988.61
1023,15954.17
1024,15928.51
1025,15919.26
1026,15923.07
1027,15935.43
1028,15949.97
1029,15957.47
1030,15948.71
1031,15922.63
1032,15889.03
1033,15858.2
1034,15833.87
1035,15812.55
1036,15790.49
1037,15767.04
1038,15744.4
1039,15724.7
1040,15707.64
1041,15691.03
1042,15672.64
1043,15650.16
1044,15621.2
1045,15585.47
1046,15560.81
1047,15574.42
1048,15645.42
1049,15737.73
1050,15792.35
1051,15764.78
1052,15687.35
1053,15617.66
1054,15599.14
1055,15617.21
1056,15642.43
1057,15651.16
1058,15638.31
1059,15602.51
1060,15548.99
1061,15499.38
1062,15477.57
1063,15491.09
1064,15515.98
1065,15525.01
1066,15505.28
1067,15465.24
1068,15415.25
1069,15370.95
1070,15354.14
1071,15385.25
1072,15452.9
1073,15516.97
1074,15540.11
1075,15532.44
1076,15536.93
1077,15591.21
1078,15680.07
1079,15760.59
1080,15798.23
1081,15812.88
1082,15845.72
1083,15924.2
1084,16012.84
1085,16058.22
1086,16028.57
1087,15963.35
1088,15916.5
1089,15918.88
1090,15946.55
1091,15967.79
1092,15962.63
1093,15931.48
1094,15876.91
1095,15806.56
1096,15734.61
1097,15675.01
1098,15630.25
1099,15592.06
1100,15552.26
1101,15507.79
1102,15459.09
1103,15407.2
1104,15357.45
1105,15317.24
1106,15292.62
1107,15282.7
1108,15284.19
1109,15292.91
1110,15301.39
1111,15301.43
1112,15287.53
1113,15260.85
1114,15223.65
1115,15183.53
1116,15157.19
1117,15161.63
1118,15195.46
1119,15235.39
1120,15257.66
1121,15251.59
1122,15217.34
1123,15156.38
1124,15080.4
1125,15006.81
1126,14949.55
1127,14900.44
1128,14842.96
1129,14768.42
1130,14699.22
1131,14665.36
1132,14675.49
1133,14683.78
1134,14636.42
1135,14522.85
1136,14405.13
1137,14350.02
1138,14362.05
1139,14376.16
1140,14328.87
1141,14231.54
1142,14151.17
1143,14147.13
1144,14206.08
1145,14279.35
1146,14325.18
1147,14336.74
1148,14317.95
1149,14276.28
1150,14229.95
1151,14199.08
1152,14188.25
1153,14172.8
1154,14125.66
1155,14047.36
1156,13971.84
1157,13932.68
1158,13929.01
1159,13933.29
1160,13920.57
1161,13892.75
1162,13864.77
1163,13847.44
1164,13831.9
1165,13803.48
1166,13756.92
1167,13712.89
1168,13696.36
1169,13717.05
1170,13759.13
1171,13804.29
1172,13833.76
1173,13828.29
1174,13771.95
1175,13687.37
1176,13621.79
1177,13612.89
1178,13637
1179,13647.11
1180,13612.93
1181,13562.52
1182,13536.43
1183,13550.77
1184,13572.79
1185,13564.85
1186,13520.07
1187,13468.25
1188,13439.28
1189,13435.93
1190,13441.61
1191,13441.65
1192,13436.92
1193,13434.73
1194,13438.05
1195,13433.94
1196,13405.92
1197,13351.79
1198,13298.32
1199,13274.94
1200,13285.11
1201,13301.89
1202,13299.06
1203,13280.73
1204,13271.49
1205,13291
1206,13326.32
1207,13352.2
1208,13349.69
1209,13320.2
1210,13269.27
1211,13209.51
1212,13165.77
1213,13162.88
1214,13197.9
1215,13240.6
1216,13262.5
1217,13262.49
1218,13254.43
1219,13249.13
1220,13242.78
1221,13227.34
1222,13203.33
1223,13191.69
1224,13215.57
1225,13268.47
1226,13305.78
1227,13284.35
1228,13213.42
1229,13139.14
1230,13101.79
1231,13101.85
1232,13125.04
1233,13157.77
1234,13188.59
1235,13206.46
1236,13204.52
1237,13182.2
1238,13140.29
1239,13092.66
1240,13063.88
1241,13073.81
1242,13107.45
1243,13135.02
1244,13136.31
1245,13122.86
1246,13112.62
1247,13113.29
1248,13115.82
1249,13110.04
1250,13094.07
1251,13073.08
1252,13053.5
1253,13048.96
1254,13076.26
1255,13140.56
1256,13208.95
1257,13241.05
1258,13223.04
1259,13183.4
1260,13152.83
1261,13136.28
1262,13117.84
1263,13085.21
1264,13053.18
1265,13047.36
1266,13079.12
1267,13118.27
1268,13127.57
1269,13097.96
1270,13059.77
1271,13043.96
1272,13051.49
1273,13062.44
1274,13059.4
1275,13040.3
1276,13008.09
1277,12970.66
1278,12947.41
1279,12958.53
1280,13000.15
1281,13041.5
1282,13053.32
1283,13033.61
1284,12994.93
1285,12952.59
1286,12931.7
1287,12959.41
1288,13037.46
1289,13124.18
1290,13175.66
1291,13180.54
1292,13153.74
1293,13110.38
1294,13062.44
1295,13020.73
1296,12997.01
1297,13005.24
1298,13058.71
1299,13139.32
1300,13193.29
1301,13173.18
1302,13105.38
1303,13054.85
1304,13065.44
1305,13105.02
1306,13125.16
1307,13106.48
1308,13073.84
1309,13054.19
1310,13053.81
1311,13064.68
1312,13079.98
1313,13099.73
1314,13126
1315,13159.3
1316,13197.15
1317,13236.26
1318,13264.78
1319,13263.6
1320,13220.6
1321,13166.82
1322,13149.08
1323,13189.42
1324,13251.71
1325,13292.85
1326,13303.16
1327,13306.42
1328,13323.85
1329,13347.85
1330,13358.49
1331,13345.4
1332,13323.86
1333,13313.07
1334,13321.23
1335,13344.3
1336,13376.57
1337,13404.3
1338,13410
1339,13386.84
1340,13358.76
1341,13354.45
1342,13376.38
1343,13396.37
1344,13388.64
1345,13361.44
1346,13339.5
1347,13338.45
1348,13346.83
1349,13348.53
1350,13335.38
1351,13308.49
1352,13271.2
1353,13240.31
1354,13238.98
1355,13277.39
1356,13329.45
1357,13363.56
1358,13370.93
1359,13367.74
1360,13369.58
1361,13378.74
1362,13391.69
1363,13405.63
1364,13419.54
1365,13432.77
1366,13447.7
1367,13469.55
1368,13502.93
1369,13547.62
1370,13601.57
1371,13658.15
1372,13700.94
1373,13713.58
1374,13701.66
1375,13688.77
1376,13694.8
1377,13718.86
1378,13753.71
1379,13788.41
1380,13805.78
1381,13789.99
1382,13749.46
1383,13708.45
1384,13685.84
1385,13679.83
1386,13683.62
1387,13680.49
1388,13640.86
1389,13542.74
1390,13433.72
1391,13395.29
1392,13463.06
1393,13551.83
1394,13560.98
1395,13480.7
1396,13387.39
1397,13347.97
1398,13358.27
1399,13390.16
1400,13419.27
1401,13427.98
1402,13402.06
1403,13359.03
1404,13337.2
1405,13359.97
1406,13397.8
1407,13410.59
1408,13389.81
1409,13364.25
1410,13359.89
1411,13368.23
1412,13366.52
1413,13347.04
1414,13334.06
1415,13353.82
1416,13401.42
1417,13448.83
1418,13474.59
1419,13484.98
1420,13492.81
1421,13503.41
1422,13512.61
1423,13516.08
1424,13512.88
1425,13503.47
1426,13488.1
1427,13466.38
1428,13438.91
1429,13419.94
1430,13433.7
1431,13490.07
1432,13545.71
1433,13546.68
1434,13489.71
1435,13430.58
1436,13418.33
1437,13438.44
1438,13452.22
1439,13439.25
1440,13412.77
1441,13389.8
1442,13388.75
1443,13428.92
1444,13507.67
1445,13559.14
1446,13510.86
1447,13389.72
1448,13314.08
1449,13373.06
1450,13505.58
1451,13609.04
1452,13642.4
1453,13648.11
1454,13667.73
1455,13693.72
1456,13697.44
1457,13669.06
1458,13635.88
1459,13627.17
1460,13644.56
1461,13672.47
1462,13698.65
1463,13721.25
1464,13740.18
1465,13753.97
1466,13760.02
1467,13757.42
1468,13752.38
1469,13752.72
1470,13758.64
1471,13761.46
1472,13753.41
1473,13734.83
1474,13709.06
1475,13686.03
1476,13685.81
1477,13724.54
1478,13780.08
1479,13812.39
1480,13801.27
1481,13767.02
1482,13734.36
1483,13722.44
1484,13747.06
1485,13807.4
1486,13859.78
1487,13856.77
1488,13798.42
1489,13720.62
1490,13655.61
1491,13620.33
1492,13627.15
1493,13658.63
1494,13669.9
1495,13633.36
1496,13595.1
1497,13617.41
1498,13696.28
1499,13755.57
1500,13736.95
1501,13686.05
1502,13678.3
1503,13730.72
1504,13786.84
1505,13797.49
1506,13781.92
1507,13782.64
1508,13808.22
1509,13818.91
1510,13783.14
1511,13746.31
1512,13783.2
1513,13898.94
1514,13989.05
1515,13960.11
1516,13868.22
1517,13833.34
1518,13895.74
1519,13959.81
1520,13932.31
1521,13841.88
1522,13773.22
1523,13773.69
1524,13823.02
1525,13892.85
1526,13946.66
1527,13944.28
1528,13881.9
1529,13822.67
1530,13828.23
1531,13887.23
1532,13952.75
1533,13995.53
1534,14019.51
1535,14032.02
1536,14038.76
1537,14044.67
1538,14055.96
1539,14081.04
1540,14124.76
1541,14162.24
1542,14155.08
1543,14097.4
1544,14039.47
1545,14029.64
1546,14061.22
1547,14103.47
1548,14138.75
1549,14170.64
1550,14203.3
1551,14232.19
1552,14249.35
1553,14252.24
1554,14246.2
1555,14236.48
1556,14223.93
1557,14207.79
1558,14185.43
1559,14151.77
1560,14107.68
1561,14084.63
1562,14121.8
1563,14205.08
1564,14260.37
1565,14234.25
1566,14173.94
1567,14151
1568,14191.28
1569,14276.95
1570,14380.72
1571,14449.16
1572,14428.62
1573,14351.43
1574,14318.04
1575,14381.01
1576,14456.65
1577,14448.26
1578,14377.85
1579,14343.03
1580,14392.4
1581,14466.45
1582,14500.05
1583,14499.53
1584,14506.68
1585,14540.62
1586,14582.44
1587,14613.39
1588,14638.17
1589,14669.77
1590,14698.33
1591,14685.27
1592,14611.93
1593,14555.78
1594,14614.82
1595,14759.83
1596,14842.31
1597,14770.11
1598,14641.55
1599,14583.74
1600,14617.56
1601,14691.62
1602,14765.18
1603,14823.69
1604,14857.47
1605,14868.72
1606,14865.47
1607,14863.26
1608,14888.75
1609,14958.71
1610,15033.85
1611,15058.68
1612,15021.95
1613,14957.82
1614,14904.08
1615,14903.05
1616,14991.61
1617,15123.65
1618,15196.26
1619,15157.21
1620,15062.72
1621,14976.87
1622,14920.3
1623,14894.32
1624,14890.43
1625,14887.2
1626,14869.61
1627,14854.21
1628,14864.75
1629,14902.17
1630,14948.15
1631,14982.34
1632,14980.98
1633,14925.72
1634,14850.49
1635,14815.51
1636,14841.91
1637,14891.88
1638,14928.02
1639,14938.5
1640,14920.37
1641,14896.91
1642,14914.69
1643,14985.41
1644,15028.22
1645,14962.5
1646,14840.46
1647,14780.92
1648,14817.91
1649,14861.67
1650,14839.28
1651,14795.91
1652,14805.38
1653,14876.34
1654,14964.43
1655,15032.6
1656,15064.25
1657,15048.6
1658,14997.09
1659,14930.91
1660,14871.2
1661,14839.01
1662,14845.3
1663,14865.91
1664,14872.67
1665,14879.5
1666,14926.84
1667,15018.06
1668,15091.93
1669,15097.35
1670,15067.91
1671,15061.66
1672,15093.28
1673,15139.4
1674,15178.17
1675,15194.37
1676,15177.1
1677,15139.36
1678,15104.48
1679,15095.58
1680,15135.45
1681,15223.35
1682,15286.54
1683,15251.15
1684,15162.03
1685,15126.93
1686,15175.61
1687,15228.18
1688,15219.91
1689,15175.2
1690,15138.74
1691,15144.47
1692,15218.69
1693,15332.53
1694,15367.52
1695,15241.26
1696,15068.7
1697,15009.3
1698,15076.98
1699,15179.63
1700,15250.78
1701,15275
1702,15251.23
1703,15222.39
1704,15241.09
1705,15300.17
1706,15345.99
1707,15344.72
1708,15302.75
1709,15236.66
1710,15191.44
1711,15216.62
1712,15290.03
1713,15333.16
1714,15319.89
1715,15326.63
1716,15413.56
1717,15503.28
1718,15485.31
1719,15389.55
1720,15351.88
1721,15408.12
1722,15410.01
1723,15251.19
1724,15103.79
1725,15195.83
1726,15450.93
1727,15583.57
1728,15486.95
1729,15348.12
1730,15324.98
1731,15355.14
1732,15332.26
1733,15259.39
1734,15204.42
1735,15192.72
1736,15190.48
1737,15177.74
1738,15192.83
1739,15277.76
1740,15407.64
1741,15525.72
1742,15605.71
1743,15655.18
1744,15672.08
1745,15626.28
1746,15501.58
1747,15393.01
1748,15428.58
1749,15575.73
1750,15666.55
1751,15614.21
1752,15490.09
1753,15375.6
1754,15320.5
1755,15359.31
1756,15451.43
1757,15511.44
1758,15515.86
1759,15523.64
1760,15574.61
1761,15636.68
1762,15668.57
1763,15655.49
1764,15595.52
1765,15521.54
1766,15497.28
1767,15547.09
1768,15619.2
1769,15666.34
1770,15695.92
1771,15724.92
1772,15723.03
1773,15635.46
1774,15494.9
1775,15437.73
1776,15524.91
1777,15616.1
1778,15578.2
1779,15487.48
1780,15482.1
1781,15570.62
1782,15669.55
1783,15722.7
1784,15715.88
1785,15652.82
1786,15580.74
1787,15548.44
1788,15561.86
1789,15608.94
1790,15662.41
1791,15683.29
1792,15659.37
1793,15621.23
1794,15594.75
1795,15578.29
1796,15565.31
1797,15553.1
1798,15540.99
1799,15535.78
1800,15550.26
1801,15588.85
1802,15642.46
1803,15697.15
1804,15727.64
1805,15716.3
1806,15710.49
1807,15776.43
1808,15867.99
1809,15854.27
1810,15723.57
1811,15640
1812,15701.89
1813,15785.66
1814,15761.57
1815,15681.63
1816,15653.66
1817,15695
1818,15762.91
1819,15808.12
1820,15775.13
1821,15652.48
1822,15528.09
1823,15483.01
1824,15509.54
1825,15577.67
1826,15672.29
1827,15783.31
1828,15850.36
1829,15768.27
1830,15558.26
1831,15452.25
1832,15587.54
1833,15755.41
1834,15736.27
1835,15625.19
1836,15611.38
1837,15672.62
1838,15655.38
1839,15541.26
1840,15464.97
1841,15502.32
1842,15598.54
1843,15691.71
1844,15747.87
1845,15745.7
1846,15706.96
1847,15669.42
1848,15654.75
1849,15672.25
1850,15695.54
1851,15657.33
1852,15561.81
1853,15559.78
1854,15740.07
1855,15915.41
1856,15883.2
1857,15721.67
1858,15604.37
1859,15554.51
1860,15500.18
1861,15440.43
1862,15451.04
1863,15547.76
1864,15634.81
1865,15646.24
1866,15637.08
1867,15662.23
1868,15663.72
1869,15563.41
1870,15421.56
1871,15365.91
1872,15431.38
1873,15573.35
1874,15721.88
1875,15776.99
1876,15702.92
1877,15605.9
1878,15581.15
1879,15620.55
1880,15691.16
1881,15747.53
1882,15744.84
1883,15691.42
1884,15625.11
1885,15561.13
1886,15495.22
1887,15463.96
1888,15560.14
1889,15777.84
1890,15894.34
1891,15761.35
1892,15570.77
1893,15532.34
1894,15572.25
1895,15542.94
1896,15472.48
1897,15470.01
1898,15509.15
1899,15463.03
1900,15340.85
1901,15308.65
1902,15428.05
1903,15570.02
1904,15631.21
1905,15620.1
1906,15565.91
1907,15510.69
1908,15489
1909,15472.32
1910,15420.2
1911,15395.23
1912,15502.5
1913,15646.4
1914,15583.92
1915,15333.22
1916,15203.23
1917,15310.49
1918,15445.07
1919,15470.73
1920,15481.77
1921,15550.48
1922,15574.95
1923,15464.82
1924,15353.3
1925,15403.76
1926,15525.71
1927,15539.79
1928,15468.31
1929,15446.37
1930,15485.35
1931,15496.79
1932,15466.07
1933,15462.88
1934,15488.34
1935,15434.01
1936,15281.83
1937,15218.19
1938,15345.6
1939,15458.93
1940,15376.27
1941,15217.26
1942,15149.04
1943,15197.76
1944,15334.34
1945,15468.76
1946,15490.46
1947,15365.31
1948,15111.98
1949,14855.85
1950,14796.79
1951,14928.36
1952,15035.73
1953,15026.37
1954,14979.61
1955,14962
1956,14998.7
1957,15075.4
1958,15100.98
1959,15026.03
1960,14945.84
1961,14942.49
1962,14958.51
1963,14926.29
1964,14879.17
1965,14876.43
1966,14954.52
1967,15123.19
1968,15249.75
1969,15162.05
1970,14974.34
1971,14947.39
1972,15043.43
1973,15020.23
1974,14863.67
1975,14759.71
1976,14772.94
1977,14831.23
1978,14856.86
1979,14775.05
1980,14599.75
1981,14480.65
1982,14497.1
1983,14576.86
1984,14638.44
1985,14616.53
1986,14506.53
1987,14458.24
1988,14561.74
1989,14639.39
1990,14540.48
1991,14412.49
1992,14414.96
1993,14450.65
1994,14397.69
1995,14377.67
1996,14537.62
1997,14693.95
1998,14594.52
1999,14396.12
2000,14392.62
2001,14526.21
2002,14580.59
2003,14509.99
2004,14367.63
2005,14227.46
2006,14169.91
2007,14193.64
2008,14239.21
2009,14250.6
2010,14181.7
2011,14100.24
2012,14163.46
2013,14326.03
2014,14354.11
2015,14215.01
2016,14090.75
2017,14073.44
2018,14140.32
2019,14210.63
2020,14144.18
2021,13949.48
2022,13831.99
2023,13863.06
2024,13908.3
2025,13879.86
2026,13782.99
2027,13676.31
2028,13688.63
2029,13829.98
2030,13905.16
2031,13836.67
2032,13782.93
2033,13803.32
2034,13738.12
2035,13541.88
2036,13423.2
2037,13478.95
2038,13539.58
2039,13498.28
2040,13430.04
2041,13394.53
2042,13378.92
2043,13362.22
2044,13324.5
2045,13260.16
2046,13192.48
2047,13134.56
2048,13072.13
2049,13025.97
2050,13093.13
2051,13266.48
2052,13314.97
2053,13141.1
2054,12959.38
2055,12898.57
2056,12854.98
2057,12777.83
2058,12762.34
2059,12847.4
2060,12942.74
2061,12969.82
2062,12894.9
2063,12770.07
2064,12778.59
2065,12933.92
2066,12967.67
2067,12781.04
2068,12561.38
2069,12416.78
2070,12313.87
2071,12273.23
2072,12394.42
2073,12610.21
2074,12652.14
2075,12480.63
2076,12321.95
2077,12264.27
2078,12240.63
2079,12247.84
2080,12341.44
2081,12418.58
2082,12260.14
2083,12005.95
2084,12046.58
2085,12308.78
2086,12412.87
2087,12292.25
2088,12082.28
2089,11908.95
2090,11874.9
2091,11945.11
2092,12016.25
2093,11987.57
2094,11795.8
2095,11599.7
2096,11587.96
2097,11665.23
2098,11679.01
2099,11634.23
2100,11576.92
2101,11543.46
2102,11521.87
2103,11354.95
2104,11014.62
2105,10889.84
2106,11155.49
2107,11360.25
2108,11245.79
2109,11069.08
2110,10985.43
2111,10906.81
2112,10839.2
2113,10929.99
2114,11116.1
2115,11111.5
2116,10912.81
2117,10766.44
2118,10734.44
2119,10739.68
2120,10737.41
2121,10710.53
2122,10692.76
2123,10731.4
2124,10805.37
2125,10858.54
2126,10793.63
2127,10580.31
2128,10487.47
2129,10675.77
2130,10785.29
2131,10582.13
2132,10329.69
2133,10180.94
2134,9978.428
2135,9751.176
2136,9814.175
2137,10130.47
2138,10282.49
2139,10168.99
2140,9963.815
2141,9797.983
2142,9756.628
2143,9816.939
2144,9888.349
2145,9790.077
2146,9420.661
2147,9156.352
2148,9303.945
2149,9559.445
2150,9643.667
2151,9601.397
2152,9489.089
2153,9310.672
2154,9145.51
2155,9160.365
2156,9289.332
2157,9271.062
2158,9120.314
2159,9017.565
2160,8941.653
2161,8809.541
2162,8746.738
2163,8849.691
2164,8829.453
2165,8521.704
2166,8331.27
2167,8433.063
2168,8414.226
2169,8188.866
2170,8161.286
2171,8330.186
2172,8318.454
2173,8116.964
2174,7949.05
2175,7910.143
2176,7999.096
2177,8034.365
2178,7880.052
2179,7720.699
2180,7707.784
2181,7785.473
2182,7864.756
2183,7850.978
2184,7735.154
2185,7598.495
2186,7586
2187,7811.835
2188,7870.975
2189,7364.745
2190,6982.682
2191,7264.497
2192,7414.479
2193,7009.739
2194,6760.958
2195,6942.229
2196,7155.153
2197,7257.215
2198,7323.79
2199,7231.522
2200,6848.222
2201,6565.511
2202,6725.431
2203,6952.962
2204,6971.903
2205,6985.928
2206,7017.635
2207,6812.842
2208,6507.364
2209,6496.43
2210,6573.309
2211,6360.462
2212,6163.896
2213,6283.623
2214,6394.459
2215,6240.181
2216,5886.804
2217,5537.947
2218,5486.122
2219,5721.792
2220,6020.121
2221,6089.449
2222,5790.341
2223,5634.609
2224,5837.087
2225,5681.975
2226,5093.532
2227,4905.004
2228,5165.807
2229,5346.725
2230,5406.967
2231,5474.111
2232,5441.008
2233,5247.901
2234,5073.9
2235,5028.733
2236,5084.261
2237,5145.719
2238,5096.617
2239,4982.015
2240,4884.601
2241,4758.496
2242,4572.539
2243,4389.571
2244,4255.535
2245,4179.256
2246,4128.758
2247,4057.132
2248,3984.819
2249,3947.616
2250,3950.635
2251,3998.039
2252,4099.373
2253,4203.484
2254,4212.906
2255,4127.469
2256,4003.934
2257,3922.366
2258,3880.44
2259,3688.718
2260,3451.719
2261,3594.698
2262,3826.209
2263,3569.541
2264,3316.137
2265,3514.694
2266,3519.564
2267,3155.298
2268,3111.951
2269,3298.471
2270,3118.142
2271,2808.016
2272,2765.843
2273,2877.363
2274,3001.752
2275,3103.849
2276,3130.674
2277,3033.005
2278,2926.806
2279,2953.696
2280,3124.502
2281,3296.357
2282,3157.447
2283,2792.583
2284,2543.732
2285,2355.814
2286,2154.441
2287,2248.024
2288,2554.352
2289,2422.568
2290,2115.141
2291,2325.133
2292,2457.794
2293,2035.367
2294,1903.385
2295,2220.134
2296,2192.322
2297,1934.76
2298,1936.082
2299,1912.92
2300,1682.356
