400,34500.93
401,34468.28
402,34445.79
403,34426.68
404,34403.99
405,34373.15
406,34340.91
407,34317.22
408,34311.23
409,34320.25
410,34332.52
411,34336.14
412,34324.16
413,34299
414,34264.21
415,34223.48
416,34181.48
417,34143.21
418,34112.99
419,34084.07
420,34040.33
421,33965.5
422,33860.55
423,33762.43
424,33712.47
425,33740.83
426,33814.75
427,33879.46
428,33883.39
429,33830.87
430,33775.29
431,33771.26
432,33840.57
433,33935.15
434,33998.16
435,33983.55
436,33904.94
437,33796.8
438,33692.33
439,33604.89
440,33530.73
441,33465.61
442,33407.49
443,33358.93
444,33322.96
445,33299.96
446,33276.21
447,33233.45
448,33155.06
449,33048.52
450,32940.25
451,32856.89
452,32811.38
453,32791.76
454,32783.5
455,32771.81
456,32740.44
457,32672.8
458,32555.04
459,32406.61
460,32269.51
461,32185.57
462,32172.41
463,32210.66
464,32277.94
465,32348.8
466,32386.26
467,32350.86
468,32210.45
469,32000.26
470,31792.41
471,31657.54
472,31615.56
473,31624.82
474,31640.13
475,31628.85
476,31592.76
477,31539.51
478,31475.78
479,31401.96
480,31315.85
481,31216.07
482,31117.34
483,31049.06
484,31040.86
485,31096.2
486,31166.82
487,31198.53
488,31151.11
489,31047.69
490,30929.55
491,30835.09
492,30771.22
493,30724.55
494,30681.53
495,30634.51
496,30583.86
497,30530.5
498,30475.96
499,30423.55
500,30376.88
501,30338.26
502,30301
503,30254.61
504,30189.71
505,30116.89
506,30064.54
507,30061.27
508,30106.7
509,30147.18
510,30123.58
511,29996.89
512,29808.68
513,29620.65
514,29488.93
515,29420.04
516,29393.42
517,29388.47
518,29389.15
519,29384.39
520,29363.5
521,29318.83
522,29249.66
523,29156.21
524,29041.84
525,28925.29
526,28829.89
527,28776.11
528,28752.82
529,28729.04
530,28674.26
531,28581.99
532,28475.43
533,28379.54
534,28310.76
535,28264.65
536,28233.6
537,28209.08
538,28177.49
539,28123.69
540,28034.88
541,27926.15
542,27830.84
543,27781.7
544,27784.44
545,27810.79
546,27830.5
547,27823.89
548,27796.87
549,27759.21
550,27717.42
551,27661.73
552,27577.3
553,27452.92
554,27316.01
555,27217.75
556,27207.6
557,27280.01
558,27366.13
559,27394.1
560,27326.19
561,27198.33
562,27055.88
563,26935.75
564,26838.97
565,26757
566,26682.5
567,26618.7
568,26574.23
569,26557.09
570,26560.04
571,26561.38
572,26539.13
573,26488.73
574,26435.78
575,26408.74
576,26420.62
577,26433.95
578,26401.14
579,26286.78
580,26132.22
581,26008.88
582,25981.49
583,26028.01
584,26064.2
585,26007
586,25850.28
587,25685.13
588,25608.23
589,25657.93
590,25741.17
591,25747.27
592,25602.36
593,25386.14
594,25218.31
595,25200.82
596,25296.33
597,25400.4
598,25413.73
599,25324.49
600,25194.4
601,25086.39
602,25024.22
603,24975.28
604,24902.78
605,24789.37
606,24666.48
607,24572.9
608,24538.54
609,24553.37
610,24596.07
611,24645.14
612,24676.87
613,24666.46
614,24591.48
615,24468.94
616,24349.21
617,24282.72
618,24281.58
619,24303.99
620,24304.35
621,24256.63
622,24181.17
623,24104.94
624,24047.6
625,23998.76
626,23940.26
627,23858.5
628,23772.76
629,23717
630,23721.82
631,23772.22
632,23819.62
633,23816
634,23750.42
635,23655.95
636,23567.94
637,23507.14
638,23466.37
639,23435.3
640,23404.14
641,23364.63
642,23308.87
643,23232.52
644,23150.58
645,23084.48
646,23052.37
647,23041.95
648,23024.26
649,22972.1
650,22891.42
651,22816.85
652,22783.08
653,22794.65
654,22815.45
655,22806.74
656,22750.83
657,22674.31
658,22609.28
659,22576.93
660,22561.45
661,22539.22
662,22490.99
663,22421.14
664,22342.2
665,22266.48
666,22204.89
667,22167.53
668,22163.3
669,22181.84
670,22196.91
671,22182.36
672,22128.12
673,22044.08
674,21941.35
675,21833.17
676,21736.8
677,21669.85
678,21641.05
679,21633.63
680,21626.38
681,21602.24
682,21562.65
683,21514.19
684,21463.79
685,21420.7
686,21395.16
687,21395.09
688,21401.88
689,21379.97
690,21295.95
691,21161.78
692,21031.8
693,20960.85
694,20966.47
695,21015.95
696,21073.22
697,21107.48
698,21098.09
699,21025.71
700,20889.08
701,20739.18
702,20636.13
703,20622
704,20662.04
705,20700.9
706,20690.58
707,20628.8
708,20531.45
709,20415.87
710,20314.28
711,20267.27
712,20311.07
713,20412.99
714,20485.27
715,20441.88
716,20279.68
717,20087.81
718,19958.92
719,19932.24
720,19964.66
721,20006.25
722,20020.66
723,20000.5
724,19942.16
725,19850.73
726,19757.62
727,19699.06
728,19697.82
729,19718.75
730,19711.25
731,19635.79
732,19519.58
733,19414.99
734,19368.48
735,19375.31
736,19404.13
737,19424.91
738,19426.51
739,19411.01
740,19380.54
741,19331.37
742,19254.4
743,19141.04
744,19008.59
745,18906.39
746,18884.97
747,18951.69
748,19043.05
749,19089.47
750,19053.19
751,18965.65
752,18867.28
753,18788.81
754,18733.16
755,18698.18
756,18681.33
757,18678.54
758,18685.34
759,18696.4
760,18701.52
761,18688.94
762,18648.76
763,18583.69
764,18501.84
765,18411.87
766,18327.6
767,18265.77
768,18241.31
769,18246.22
770,18256.22
771,18247.61
772,18212.47
773,18157.03
774,18088.13
775,18016.02
776,17954.81
777,17918.55
778,17910.63
779,17919.39
780,17932.11
781,17935.88
782,17917.42
783,17863.52
784,17774.41
785,17679.96
786,17613.86
787,17595.01
788,17601.61
789,17604.97
790,17584.06
791,17544.33
792,17496.91
793,17451.61
794,17412.4
795,17381.67
796,17360.51
797,17343.06
798,17321.1
799,17287.96
800,17247.13
801,17206.35
802,17172.48
803,17145.14
804,17120.29
805,17093.73
806,17059.71
807,17011.56
808,16943.76
809,16866.28
810,16800.26
811,16765.85
812,16762.11
813,16770.07
814,16770.71
815,16755.69
816,16727.44
817,16688.91
818,16645.27
819,16604.29
820,16573.65
821,16551.34
822,16522.05
823,16469.79
824,16394.46
825,16321.2
826,16277.18
827,16276.26
828,16307.75
829,16358.36
830,16410.17
831,16435.35
832,16404.97
833,16310.74
834,16195.07
835,16107.87
836,16079.59
837,16085.88
838,16092.84
839,16076.85
840,16047.51
841,16021.1
842,16007.51
843,15993.06
844,15958.63
845,15891.83
846,15808.69
847,15732.65
848,15682.19
849,15652.31
850,15631.04
851,15609.15
852,15592.21
853,15590.74
854,15611.17
855,15635.29
856,15635.68
857,15590.25
858,15512.26
859,15429.63
860,15367.9
861,15335.33
862,15332.2
863,15356.39
864,15385.69
865,15387.91
866,15335.62
867,15245.38
868,15157.59
869,15109
870,15098.39
871,15102.3
872,15098.72
873,15084.19
874,15066.9
875,15054.35
876,15043.48
877,15024.11
878,14987.28
879,14941.86
880,14909.37
881,14909.57
882,14932.78
883,14947.12
884,14922.62
885,14866.39
886,14815.07
887,14803.81
888,14831.02
889,14864.44
890,14872.53
891,14851.87
892,14823.39
893,14807.59
894,14801.25
895,14779.75
896,14719.34
897,14628.2
898,14544.21
899,14504.58
900,14510.44
901,14528.33
902,14524.6
903,14490.18
904,14440.13
905,14390.14
906,14349.19
907,14319.49
908,14302.66
909,14293.24
910,14278.59
911,14246.24
912,14194.64
913,14133.45
914,14072.73
915,14021.32
916,13986.83
917,13976.24
918,13984.25
919,13992.84
920,13984.17
921,13957.28
922,13928.55
923,13914.49
924,13917.5
925,13925.58
926,13926.4
927,13913.58
928,13886.75
929,13846.06
930,13798.5
931,13757.72
932,13736.99
933,13734.99
934,13736.36
935,13725.62
936,13696.02
937,13648.99
938,13586.83
939,13521.81
940,13475.34
941,13467.55
942,13489.32
943,13505.68
944,13483.08
945,13426.19
946,13372.15
947,13356.73
948,13378.66
949,13406.5
950,13409.85
951,13386.28
952,13354.99
953,13334.18
954,13320.61
955,13295.26
956,13240.99
957,13168.95
958,13109.95
959,13092.24
960,13110.09
961,13135.58
962,13142.65
963,13128.64
964,13105.25
965,13083.84
966,13070.63
967,13068.94
968,13080.3
969,13090.52
970,13077.17
971,13022.02
972,12941.36
973,12868.22
974,12831.1
975,12825.06
976,12830.24
977,12828.42
978,12812.21
979,12778.61
980,12727.4
981,12674.47
982,12641.64
983,12644.69
984,12667.55
985,12683.59
986,12673.28
987,12650.31
988,12638.22
989,12652.33
990,12673.46
991,12673.38
992,12634.31
993,12577.24
994,12532.12
995,12518.21
996,12519.61
997,12513.31
998,12484.08
999,12439.28
1000,12390.23
1001,12345.81
1002,12308.64
1003,12280.39
1004,12262.73
1005,12257.37
1006,12266.04
1007,12287.62
1008,12307.95
1009,12309.16
1010,12279.79
1011,12234.02
1012,12192.42
1013,12169.57
1014,12159.44
1015,12151.55
1016,12138.62
1017,12122.79
1018,12107.94
1019,12097.8
1020,12095.72
1021,12104.98
1022,12123.93
1023,12140.26
1024,12140.39
1025,12120.62
1026,12095.39
1027,12080.94
1028,12082.72
1029,12089.41
1030,12088.36
1031,12072.7
1032,12043.1
1033,12000.98
1034,11953.8
1035,11915.72
1036,11900.62
1037,11910.34
1038,11935.52
1039,11966.32
1040,11991.88
1041,12000.53
1042,11982.34
1043,11946.49
1044,11914.4
1045,11905.34
1046,11918.66
1047,11943.36
1048,11968.25
1049,11980.84
1050,11968.16
1051,11922.01
1052,11859.44
1053,11805.79
1054,11781.27
1055,11785.26
1056,11811.72
1057,11851.58
1058,11885.95
1059,11894.03
1060,11867.85
1061,11831.1
1062,11812.03
1063,11820.73
1064,11832.43
1065,11818.82
1066,11772.91
1067,11719.53
1068,11685.51
1069,11680.31
1070,11693.18
1071,11712.67
1072,11734.97
1073,11763.14
1074,11799.8
1075,11838.53
1076,11866.67
1077,11874.25
1078,11876.21
1079,11900.55
1080,11969.07
1081,12063.55
1082,12150.12
1083,12201.9
1084,12224
1085,12230.65
1086,12235.84
1087,12252.85
1088,12294.72
1089,12359.61
1090,12410.26
1091,12404.63
1092,12328.95
1093,12218.38
1094,12112.41
1095,12034.2
1096,11986.19
1097,11968.85
1098,11969.99
1099,11965.68
1100,11933.68
1101,11877.7
1102,11818.93
1103,11776.3
1104,11748.45
1105,11724.31
1106,11694.88
1107,11662.89
1108,11634.93
1109,11617.92
1110,11619.86
1111,11648.96
1112,11701.37
1113,11743.38
1114,11737.18
1115,11676.36
1116,11608.16
1117,11583.82
1118,11616.15
1119,11672.3
1120,11717.67
1121,11732.49
1122,11709.22
1123,11642.99
1124,11551.27
1125,11464.24
1126,11407.38
1127,11376.52
1128,11356.23
1129,11333.52
1130,11305.1
1131,11270.09
1132,11227.12
1133,11173.56
1134,11106.72
1135,11033.05
1136,10974.38
1137,10953.17
1138,10969.13
1139,10996.5
1140,11009.51
1141,11001.83
1142,10981.5
1143,10956.33
1144,10929.09
1145,10900.11
1146,10870.1
1147,10841.56
1148,10817.56
1149,10800.65
1150,10791.9
1151,10792.04
1152,10798.57
1153,10802.86
1154,10795.89
1155,10777.79
1156,10759.78
1157,10752.8
1158,10754.17
1159,10750.65
1160,10730.19
1161,10692.4
1162,10642.6
1163,10586.95
1164,10535.51
1165,10499.5
1166,10484.88
1167,10483.07
1168,10483.05
1169,10478.84
1170,10472.83
1171,10468.14
1172,10464.93
1173,10460.37
1174,10451.7
1175,10439.22
1176,10425.11
1177,10411.04
1178,10395.15
1179,10374.29
1180,10347.93
1181,10324.78
1182,10315.53
1183,10325.27
1184,10347.95
1185,10375.97
1186,10395.9
1187,10387.34
1188,10332.24
1189,10249.31
1190,10183.48
1191,10172.28
1192,10199.87
1193,10228.33
1194,10229.99
1195,10214.92
1196,10201.78
1197,10200.88
1198,10205.66
1199,10207.64
1200,10201.29
1201,10184.63
1202,10156.74
1203,10127.9
1204,10115.95
1205,10134.75
1206,10172.87
1207,10209.37
1208,10226.7
1209,10218.48
1210,10180.7
1211,10121.35
1212,10069.42
1213,10054.54
1214,10074.28
1215,10094.71
1216,10084.56
1217,10050.04
1218,10017.86
1219,10008.96
1220,10016.72
1221,10026.51
1222,10030.8
1223,10038.89
1224,10062.24
1225,10100.15
1226,10136.28
1227,10154.14
1228,10148.52
1229,10122.15
1230,10079.74
1231,10036.91
1232,10013.34
1233,10019.77
1234,10040.59
1235,10055.46
1236,10054.56
1237,10044.05
1238,10031.29
1239,10021.37
1240,10017.51
1241,10022.18
1242,10033.19
1243,10046.36
1244,10057.96
1245,10065.69
1246,10067.63
1247,10064.74
1248,10062.79
1249,10067.65
1250,10079.42
1251,10093.28
1252,10103.78
1253,10102.56
1254,10079.92
1255,10032.14
1256,9975.09
1257,9928.635
1258,9909.752
1259,9930.808
1260,10001.53
1261,10095.4
1262,10156.59
1263,10138.9
1264,10064.38
1265,9982.195
1266,9931.129
1267,9919.211
1268,9948.533
1269,10004.25
1270,10047.78
1271,10042.67
1272,10003
1273,9977.922
1274,10004.15
1275,10049.17
1276,10057.91
1277,10004.2
1278,9929.594
1279,9884.221
1280,9884.632
1281,9909.943
1282,9938.82
1283,9964.078
1284,9986.1
1285,10005.26
1286,10021.63
1287,10035.24
1288,10048.02
1289,10065.15
1290,10091.45
1291,10120.63
1292,10137.45
1293,10129.63
1294,10104.1
1295,10074.83
1296,10053.18
1297,10043.9
1298,10050.44
1299,10068.03
1300,10082.6
1301,10081.72
1302,10072.25
1303,10071.12
1304,10087.62
1305,10103.76
1306,10095.84
1307,10061.38
1308,10030.19
1309,10032.32
1310,10065.36
1311,10104.54
1312,10129.19
1313,10140.07
1314,10144.24
1315,10146.21
1316,10145.5
1317,10141.46
1318,10139.62
1319,10150.88
1320,10181.63
1321,10210.44
1322,10205.78
1323,10158.45
1324,10111.76
1325,10114.53
1326,10168.61
1327,10228.66
1328,10254.57
1329,10257.97
1330,10272.7
1331,10314.76
1332,10352.3
1333,10346.99
1334,10304.25
1335,10278.22
1336,10315.52
1337,10383.67
1338,10412.96
1339,10365.07
1340,10292.71
1341,10263.36
1342,10292.15
1343,10332.89
1344,10341.8
1345,10323.42
1346,10305.72
1347,10306.45
1348,10312.92
1349,10307.26
1350,10283.73
1351,10250.63
1352,10217.54
1353,10197.66
1354,10205.92
1355,10247.69
1356,10301.71
1357,10342.62
1358,10360.77
1359,10363.65
1360,10359.29
1361,10353.17
1362,10349.63
1363,10348.96
1364,10341.27
1365,10316.13
1366,10285.95
1367,10285.36
1368,10341.62
1369,10431.15
1370,10511.36
1371,10556.92
1372,10579.17
1373,10593.6
1374,10606.17
1375,10615.02
1376,10618.27
1377,10615.09
1378,10605
1379,10590.03
1380,10576.54
1381,10570.61
1382,10570.29
1383,10568.41
1384,10560.49
1385,10552.51
1386,10552.48
1387,10555.5
1388,10539.81
1389,10487.47
1390,10421.07
1391,10382.96
1392,10393.75
1393,10416.7
1394,10407.82
1395,10367.89
1396,10340.13
1397,10358.82
1398,10399.95
1399,10420.06
1400,10402.52
1401,10378.91
1402,10382.79
1403,10411.26
1404,10437.61
1405,10439.84
1406,10413.78
1407,10359.7
1408,10295.84
1409,10261.71
1410,10288.73
1411,10344.6
1412,10370.63
1413,10341.97
1414,10305.8
1415,10315.03
1416,10371.07
1417,10437.13
1418,10481.4
1419,10495.33
1420,10476.32
1421,10434.61
1422,10396.61
1423,10384.13
1424,10377.84
1425,10340.74
1426,10265.96
1427,10211.2
1428,10237.07
1429,10328.46
1430,10415.23
1431,10443.63
1432,10424.84
1433,10384.73
1434,10344.49
1435,10319.88
1436,10323.03
1437,10345.11
1438,10369.3
1439,10386.55
1440,10402.1
1441,10421.84
1442,10441.77
1443,10451.9
1444,10445.83
1445,10427.89
1446,10404.44
1447,10383.12
1448,10372.83
1449,10380.34
1450,10402.46
1451,10433.16
1452,10466.5
1453,10496.76
1454,10518.42
1455,10527.93
1456,10522.61
1457,10508.68
1458,10509.84
1459,10548.57
1460,10610.63
1461,10658.83
1462,10668.9
1463,10654.33
1464,10635.14
1465,10628.4
1466,10648.62
1467,10698.94
1468,10736.78
1469,10709.7
1470,10622.4
1471,10546.65
1472,10543.53
1473,10590.53
1474,10636.13
1475,10653.4
1476,10653.81
1477,10651.4
1478,10654.2
1479,10667.4
1480,10690.85
1481,10713.64
1482,10723.78
1483,10712.13
1484,10671.31
1485,10606.88
1486,10557.81
1487,10564.44
1488,10607.53
1489,10622.73
1490,10571.02
1491,10499.77
1492,10471.42
1493,10495.41
1494,10532.54
1495,10550.72
1496,10554.15
1497,10555.95
1498,10564.78
1499,10584.47
1500,10616.85
1501,10655.5
1502,10691.57
1503,10718.46
1504,10732.49
1505,10731.78
1506,10723.73
1507,10718.7
1508,10713.67
1509,10686.63
1510,10623.89
1511,10574.87
1512,10612.93
1513,10745.14
1514,10874.08
1515,10907.16
1516,10853.43
1517,10765.89
1518,10691.13
1519,10664.28
1520,10711.03
1521,10792.08
1522,10838.45
1523,10821.84
1524,10787.2
1525,10780.3
1526,10790.81
1527,10781.67
1528,10744.98
1529,10726.83
1530,10770.2
1531,10843.89
1532,10880.78
1533,10855.62
1534,10820.93
1535,10830.22
1536,10875.62
1537,10919.57
1538,10935.51
1539,10917.09
1540,10863.52
1541,10800.7
1542,10766.8
1543,10776.36
1544,10803.14
1545,10821.46
1546,10839.71
1547,10881.01
1548,10951.37
1549,11029.26
1550,11091.29
1551,11118.62
1552,11094.79
1553,11033.05
1554,10989.92
1555,11012.14
1556,11068.97
1557,11102.64
1558,11089.51
1559,11050.3
1560,11010.21
1561,11001.7
1562,11057.93
1563,11163.07
1564,11246.24
1565,11252.98
1566,11210.73
1567,11167.57
1568,11153.14
1569,11179.52
1570,11243.8
1571,11294.3
1572,11273.49
1573,11197.61
1574,11141.33
1575,11150.97
1576,11190.54
1577,11214.59
1578,11229.75
1579,11275.75
1580,11362.24
1581,11433.06
1582,11432.01
1583,11375.72
1584,11316.93
1585,11281.64
1586,11250.97
1587,11208.64
1588,11180.33
1589,11206.53
1590,11285
1591,11359.79
1592,11386.27
1593,11385.53
1594,11395.51
1595,11427.21
1596,11466.32
1597,11497.46
1598,11505.2
1599,11477.08
1600,11438.78
1601,11441.9
1602,11508.08
1603,11593.02
1604,11648.06
1605,11659.77
1606,11631.75
1607,11578.98
1608,11533.23
1609,11522.05
1610,11543.5
1611,11585.69
1612,11624.73
1613,11624.45
1614,11571.71
1615,11531.17
1616,11575.8
1617,11678.84
1618,11745.33
1619,11728.77
1620,11687.01
1621,11681.04
1622,11698.04
1623,11693.28
1624,11650.88
1625,11593.66
1626,11544.84
1627,11517.44
1628,11520.97
1629,11550.68
1630,11589.81
1631,11622.99
1632,11639.46
1633,11630.86
1634,11603.47
1635,11571.14
1636,11547.04
1637,11543.22
1638,11565.8
1639,11593.39
1640,11597.94
1641,11580.86
1642,11569.81
1643,11580.1
1644,11592.4
1645,11585.95
1646,11575.89
1647,11595.13
1648,11643.77
1649,11674.08
1650,11647.74
1651,11584.86
1652,11521.78
1653,11494.97
1654,11540.95
1655,11654.46
1656,11735.27
1657,11689.28
1658,11563.59
1659,11465.56
1660,11447.17
1661,11492.97
1662,11582.36
1663,11691.36
1664,11794.15
1665,11854.29
1666,11829.1
1667,11726.22
1668,11640.14
1669,11649.64
1670,11708.97
1671,11736.11
1672,11708.39
1673,11655.13
1674,11612.19
1675,11626.46
1676,11732.44
1677,11865.66
1678,11922.02
1679,11884.37
1680,11834.31
1681,11832.48
1682,11858.55
1683,11879.77
1684,11892.15
1685,11906.91
1686,11919.46
1687,11902.99
1688,11846.87
1689,11808.13
1690,11851.47
1691,11941.96
1692,11980.94
1693,11929.5
1694,11848.09
1695,11796.39
1696,11789.17
1697,11827.32
1698,11890.82
1699,11944.43
1700,11961.67
1701,11932.69
1702,11857.46
1703,11775.27
1704,11734.92
1705,11745.37
1706,11784.48
1707,11826.99
1708,11843.52
1709,11815.44
1710,11781.31
1711,11794.12
1712,11848.3
1713,11892.18
1714,11907.42
1715,11941.39
1716,12027.24
1717,12091.36
1718,12036.85
1719,11910.86
1720,11869.35
1721,11963.73
1722,12053.09
1723,12022.07
1724,11963.73
1725,12017.32
1726,12152.3
1727,12221.2
1728,12158.02
1729,12031.5
1730,11913.53
1731,11840.09
1732,11836.02
1733,11900.26
1734,12015.29
1735,12124.12
1736,12116.54
1737,11950.02
1738,11812.21
1739,11900.28
1740,12104.93
1741,12173.48
1742,12060.1
1743,11947.93
1744,11958.88
1745,12031.94
1746,12088.91
1747,12118.52
1748,12133.67
1749,12129.71
1750,12087.46
1751,12018.34
1752,11991.27
1753,12054.58
1754,12140.64
1755,12158.89
1756,12112.51
1757,12062.1
1758,12058.23
1759,12136.95
1760,12290.1
1761,12384.45
1762,12295.24
1763,12112.48
1764,12009.45
1765,12028.79
1766,12095.96
1767,12146.48
1768,12142.86
1769,12076.12
1770,12044.37
1771,12154.5
1772,12317.72
1773,12337.82
1774,12193.09
1775,12069.78
1776,12086.85
1777,12166.68
1778,12216.82
1779,12228.1
1780,12219.47
1781,12207.78
1782,12208.17
1783,12225.28
1784,12248.81
1785,12262.83
1786,12238.42
1787,12156.15
1788,12074.38
1789,12076.86
1790,12154.8
1791,12225.47
1792,12243.16
1793,12223.99
1794,12186.8
1795,12141.64
1796,12101.17
1797,12107.23
1798,12208.28
1799,12355.36
1800,12420.33
1801,12361.84
1802,12279.82
1803,12258.92
1804,12295.63
1805,12361.12
1806,12374.27
1807,12244.16
1808,12052.95
1809,12013.68
1810,12167.23
1811,12300.08
1812,12266.71
1813,12167.09
1814,12123.55
1815,12144.89
1816,12201.01
1817,12267.79
1818,12325.16
1819,12355
1820,12341.6
1821,12282.6
1822,12205.18
1823,12138.49
1824,12102.5
1825,12112.41
1826,12162.48
1827,12236.13
1828,12315.17
1829,12380.11
1830,12421.56
1831,12446.79
1832,12457.5
1833,12433.77
1834,12364.63
1835,12313.58
1836,12361.08
1837,12473.69
1838,12546.59
1839,12528.84
1840,12431.43
1841,12297.51
1842,12226.28
1843,12281.8
1844,12381.59
1845,12424.63
1846,12400.27
1847,12335.21
1848,12271.79
1849,12261.37
1850,12297.33
1851,12305.3
1852,12267.22
1853,12284.63
1854,12413.75
1855,12504.11
1856,12403.37
1857,12229.36
1858,12185.79
1859,12262.38
1860,12313.34
1861,12292.57
1862,12262.59
1863,12262.37
1864,12280.23
1865,12299.11
1866,12301.19
1867,12272.96
1868,12223.6
1869,12170.84
1870,12144.49
1871,12178.07
1872,12258.32
1873,12332.96
1874,12372.64
1875,12380.35
1876,12361.77
1877,12323.45
1878,12276.86
1879,12250.12
1880,12266.71
1881,12301.14
1882,12313.66
1883,12299.56
1884,12273.88
1885,12242.63
1886,12203.71
1887,12164.54
1888,12145.82
1889,12153.73
1890,12161.79
1891,12148.36
1892,12121.88
1893,12101.67
1894,12131.24
1895,12248.29
1896,12369.9
1897,12360.91
1898,12232.83
1899,12109.19
1900,12068.81
1901,12135.26
1902,12264.79
1903,12305.45
1904,12198.52
1905,12147.21
1906,12301.28
1907,12447.2
1908,12345.71
1909,12124.28
1910,12018.43
1911,12022.69
1912,12009.98
1913,11983.92
1914,12046.1
1915,12166.51
1916,12168.58
1917,12014.25
1918,11895.06
1919,11932.81
1920,12046.58
1921,12145.08
1922,12194.02
1923,12178.6
1924,12122.51
1925,12060.22
1926,12021.31
1927,12028.94
1928,12060.1
1929,12067.76
1930,12062.84
1931,12101.28
1932,12164.61
1933,12151.59
1934,12049.43
1935,11985.2
1936,12023.27
1937,12075.03
1938,12060.41
1939,11976.92
1940,11851.7
1941,11774.26
1942,11822.06
1943,11924.87
1944,11971.48
1945,11915.17
1946,11753.19
1947,11639.03
1948,11796.26
1949,12083.51
1950,12089.67
1951,11810.48
1952,11655.38
1953,11770.65
1954,11935.3
1955,11998.48
1956,11969.34
1957,11890.48
1958,11843.61
1959,11873.3
1960,11905.71
1961,11862.83
1962,11726.63
1963,11522.04
1964,11411.02
1965,11548.1
1966,11797.17
1967,11935.2
1968,11913.75
1969,11771.96
1970,11602.83
1971,11523.58
1972,11552.46
1973,11635.63
1974,11710.99
1975,11712.57
1976,11626.46
1977,11495.27
1978,11393.53
1979,11430.66
1980,11578.28
1981,11593.74
1982,11411.53
1983,11326.41
1984,11486.61
1985,11630.9
1986,11569.46
1987,11445.95
1988,11395.56
1989,11355.32
1990,11269.51
1991,11254.83
1992,11408
1993,11557.87
1994,11519.48
1995,11425.14
1996,11462.85
1997,11527.59
1998,11438.63
1999,11269.32
2000,11179.47
2001,11121.58
2002,10970.9
2003,10861.28
2004,11039.77
2005,11368.23
2006,11489.1
2007,11405.98
2008,11366.53
2009,11376.88
2010,11261.5
2011,11085.37
2012,11113.39
2013,11310.15
2014,11357.84
2015,11217.7
2016,11147.12
2017,11207.95
2018,11228.44
2019,11154.12
2020,11087.52
2021,11066.34
2022,11032.02
2023,10980.14
2024,10989.99
2025,11074.71
2026,11139.86
2027,11108.95
2028,10948.89
2029,10719.65
2030,10626.95
2031,10734.28
2032,10836.46
2033,10816.17
2034,10762.46
2035,10756.31
2036,10822.75
2037,10904.57
2038,10800.53
2039,10493.38
2040,10356.12
2041,10567.36
2042,10828.62
2043,10909.04
2044,10828.45
2045,10663.67
2046,10545.39
2047,10534.95
2048,10540.03
2049,10499.84
2050,10454.41
2051,10437.22
2052,10444.5
2053,10457.27
2054,10435.57
2055,10355.45
2056,10228.51
2057,10090.85
2058,10015.84
2059,10027.46
2060,10054.33
2061,10072.4
2062,10155
2063,10285.76
2064,10287.03
2065,10118.13
2066,9974.586
2067,9955.789
2068,9988.016
2069,10001.28
2070,9951.85
2071,9855.286
2072,9799.882
2073,9800.72
2074,9781.318
2075,9762.437
2076,9872.515
2077,10043.44
2078,10009.83
2079,9775.52
2080,9599.155
2081,9555.818
2082,9554.387
2083,9533.842
2084,9468.735
2085,9433.916
2086,9552.585
2087,9696.272
2088,9610.916
2089,9384.261
2090,9274.547
2091,9340.976
2092,9524.859
2093,9640.688
2094,9505.605
2095,9291.519
2096,9246.933
2097,9317.331
2098,9367.239
2099,9340.391
2100,9214.993
2101,9016.79
2102,8810.306
2103,8746.672
2104,8897.657
2105,9079.105
2106,9131.616
2107,9045.143
2108,8860.743
2109,8676.825
2110,8567.049
2111,8555.647
2112,8628.981
2113,8730.599
2114,8827.648
2115,8914.454
2116,8958.051
2117,8904.301
2118,8761.622
2119,8584.837
2120,8425.705
2121,8328.57
2122,8297.064
2123,8314.831
2124,8363.751
2125,8413.131
2126,8374.767
2127,8205.456
2128,8097.357
2129,8172.959
2130,8190.216
2131,8012.708
2132,7890.549
2133,7938.06
2134,7940.274
2135,7827.615
2136,7771.056
2137,7803.882
2138,7800.783
2139,7764.751
2140,7793.819
2141,7777.5
2142,7529.164
2143,7344.62
2144,7621.209
2145,7968.951
2146,7881.669
2147,7581.883
2148,7414.287
2149,7498.286
2150,7765.437
2151,7824.445
2152,7564.225
2153,7405.282
2154,7424.636
2155,7237.715
2156,6953.9
2157,7098.368
2158,7431.707
2159,7300.507
2160,6950.342
2161,6932.567
2162,7047.022
2163,6961.338
2164,6829.768
2165,6814.061
2166,6789.953
2167,6690.43
2168,6637.94
2169,6663.325
2170,6654.685
2171,6575.894
2172,6471.281
2173,6399.613
2174,6409.614
2175,6419.697
2176,6331.287
2177,6248.831
2178,6267.239
2179,6254.381
2180,6129.52
2181,6016.829
2182,5993.406
2183,6029.256
2184,6068.278
2185,6042.12
2186,5947.182
2187,5826.829
2188,5747.979
2189,5748.037
2190,5682.776
2191,5464.041
2192,5315.909
2193,5349.021
2194,5360.202
2195,5261.282
2196,5147.829
2197,5120.727
2198,5252.024
2199,5399.238
2200,5358.021
2201,5192.646
2202,5030.998
2203,4919.223
2204,4909.601
2205,5093.459
2206,5357.739
2207,5349.052
2208,5101.515
2209,4938.627
2210,4870.729
2211,4765.879
2212,4595.695
2213,4420.522
2214,4461.161
2215,4709.505
2216,4722.214
2217,4446.403
2218,4272.938
2219,4278.791
2220,4325.167
2221,4329.796
2222,4267.802
2223,4236.247
2224,4278.45
2225,4266.314
2226,4150.507
2227,4011.051
2228,3952.82
2229,4068.18
2230,4262.514
2231,4364.964
2232,4238.244
2233,3874.185
2234,3535.134
2235,3447.988
2236,3717.781
2237,4050.054
2238,3949.111
2239,3635.663
2240,3534.869
2241,3638.602
2242,3776.056
2243,3666.032
2244,3398.065
2245,3459.238
2246,3645.314
2247,3423.67
2248,3185.785
2249,3373.141
2250,3507.208
2251,3294.361
2252,3042.496
2253,2875.326
2254,2703.193
2255,2552.792
2256,2503.933
2257,2586.376
2258,2744.133
2259,2769.415
2260,2703.568
2261,2866.246
2262,3058.026
2263,2864.365
2264,2607.598
2265,2609.287
2266,2512.173
2267,2232.672
2268,2199.508
2269,2368.733
2270,2382.98
2271,2338.708
2272,2423.104
2273,2552.805
2274,2585.765
2275,2386.78
2276,2109.475
2277,2062.868
2278,2061.213
2279,1852.617
2280,1607.583
2281,1571.154
2282,1936.766
2283,2275.053
2284,1878.466
2285,1318.54
2286,1320.466
2287,1620.134
2288,1816.42
2289,1611.031
2290,1325.693
2291,1516.626
2292,1690.451
2293,1406.203
2294,1203.185
2295,1305.565
2296,1413.033
2297,1418.165
2298,1340.13
2299,1188.676
2300,983.8657
