400,27063.63
401,27099.02
402,27132.52
403,27162.99
404,27190.6
405,27213.71
406,27222.48
407,27204.76
408,27149.98
409,27070.95
410,26998.5
411,26963.55
412,26977.52
413,27013.99
414,27042.39
415,27038.42
416,27010.71
417,26978.73
418,26961.04
419,26961.7
420,26972.46
421,26984.72
422,26992.49
423,26995.17
424,26992.84
425,26986.78
426,26985.14
427,26998.48
428,27035.96
429,27081.75
430,27098.06
431,27046.71
432,26917.59
433,26760.3
434,26631.92
435,26578.45
436,26584.53
437,26613.38
438,26629.56
439,26618.87
440,26585.32
441,26533.52
442,26472.58
443,26420.78
444,26397.4
445,26413.17
446,26434.17
447,26412.1
448,26302.84
449,26124.36
450,25943.36
451,25827.17
452,25805.81
453,25841.75
454,25890.48
455,25914.71
456,25909.03
457,25877.06
458,25822.61
459,25752.22
460,25674.29
461,25597.17
462,25527.92
463,25471.63
464,25433.17
465,25414
466,25403.06
467,25386.48
468,25351.49
469,25294.81
470,25218.44
471,25124.79
472,25029.49
473,24964.36
474,24961.94
475,25031.61
476,25118.79
477,25158.25
478,25096.54
479,24958.35
480,24800.59
481,24678.25
482,24611.78
483,24590.04
484,24600.76
485,24625.93
486,24636.14
487,24600.72
488,24501.25
489,24375.14
490,24275.72
491,24251.21
492,24292.87
493,24355.23
494,24392.97
495,24384.06
496,24338.19
497,24267.22
498,24183.88
499,24103.4
500,24041.41
501,24010.96
502,24007.59
503,24019.48
504,24034.75
505,24040.21
506,24021.45
507,23964.29
508,23870.47
509,23771.13
510,23700.4
511,23681.05
512,23690.42
513,23694.47
514,23662.97
515,23599.94
516,23528.09
517,23469.4
518,23421.92
519,23357.32
520,23246.14
521,23084.6
522,22926.76
523,22834.3
524,22850.47
525,22929.23
526,22997.57
527,22988.93
528,22906.26
529,22796.31
530,22705.49
531,22650.29
532,22610.11
533,22562.21
534,22494.2
535,22419.38
536,22354.9
537,22312.82
538,22278.92
539,22230.41
540,22147.83
541,22050.52
542,21983.18
543,21989.36
544,22061.79
545,22129.4
546,22117.52
547,21993.77
548,21828.97
549,21709.14
550,21698.28
551,21751.24
552,21788.84
553,21740.37
554,21623.96
555,21512.43
556,21476.9
557,21524.88
558,21590.6
559,21604.75
560,21533.33
561,21418.64
562,21312.75
563,21254.95
564,21230.43
565,21209.93
566,21167.82
567,21109.31
568,21055.68
569,21027.47
570,21029.34
571,21050.79
572,21080.73
573,21103.17
574,21093.63
575,21026.89
576,20896.19
577,20754.95
578,20668.63
579,20687.49
580,20766.04
581,20821.24
582,20776.75
583,20642.38
584,20489.64
585,20389.62
586,20360.5
587,20353.63
588,20316.39
589,20226.67
590,20131.01
591,20085.15
592,20125.06
593,20204.09
594,20254.09
595,20216.99
596,20113.88
597,20004
598,19943.51
599,19936.57
600,19943.58
601,19924.32
602,19865.62
603,19793.2
604,19735.69
605,19708.72
606,19695.45
607,19674.08
608,19628.66
609,19569.38
610,19513.86
611,19477.67
612,19459.66
613,19450.34
614,19440.24
615,19421.06
616,19385.5
617,19326.61
618,19250.5
619,19181.75
620,19146.11
621,19153.96
622,19179.11
623,19190.16
624,19163.56
625,19107.95
626,19040.24
627,18975.79
628,18918.85
629,18868.71
630,18824.97
631,18791.51
632,18775.41
633,18783.17
634,18802.09
635,18796.64
636,18730.4
637,18599.9
638,18465.03
639,18392.57
640,18421.24
641,18500.51
642,18562.27
643,18552.01
644,18487.34
645,18410.13
646,18358.21
647,18332.67
648,18314.43
649,18284.79
650,18234.53
651,18162.56
652,18068.41
653,17964.17
654,17878.97
655,17842.87
656,17866.37
657,17918.54
658,17963.34
659,17974.1
660,17955.73
661,17919.82
662,17876.44
663,17827.36
664,17771.48
665,17708.58
666,17646.4
667,17597.03
668,17571.43
669,17561.97
670,17545.7
671,17499.99
672,17427.12
673,17360.21
674,17334.01
675,17361.19
676,17413.25
677,17457.29
678,17468.78
679,17447.05
680,17395.67
681,17321.15
682,17243.15
683,17185
684,17164.47
685,17160.94
686,17137.3
687,17060.79
688,16947.37
689,16844.16
690,16796.55
691,16808.22
692,16843.94
693,16867.67
694,16864.38
695,16847.42
696,16832.01
697,16824.23
698,16812.23
699,16782.18
700,16729.71
701,16677.81
702,16654.27
703,16675.9
704,16712.59
705,16721.73
706,16668.95
707,16572.15
708,16469.89
709,16397.7
710,16362.29
711,16353.96
712,16362.35
713,16369.68
714,16352.18
715,16287.08
716,16180.61
717,16071.34
718,15998.96
719,15980.41
720,15997.5
721,16029.12
722,16055.76
723,16061.2
724,16029.73
725,15955.56
726,15862.96
727,15781.75
728,15735.7
729,15722.65
730,15733.51
731,15758.2
732,15780.3
733,15781.05
734,15744.93
735,15684.69
736,15627.7
737,15599.12
738,15594.84
739,15590.15
740,15561.05
741,15505.22
742,15440.61
743,15385.55
744,15346.95
745,15317.57
746,15289.42
747,15262.5
748,15249.84
749,15265.59
750,15309.05
751,15347.3
752,15343.32
753,15277.18
754,15178.46
755,15085.6
756,15028.5
757,15004.04
758,15001.1
759,15007.79
760,15008.1
761,14984.73
762,14925.05
763,14848.87
764,14789.85
765,14777.44
766,14801.09
767,14828.08
768,14827.36
769,14791.93
770,14731.83
771,14657.58
772,14583.07
773,14525.16
774,14500.08
775,14505.09
776,14515.99
777,14507.88
778,14471.27
779,14418.34
780,14362.87
781,14316.89
782,14289.47
783,14289.29
784,14315.8
785,14348.05
786,14362.5
787,14346.15
788,14315.04
789,14290.18
790,14284.41
791,14282.53
792,14263.26
793,14211.54
794,14139
795,14064.54
796,14004.04
797,13957.6
798,13919.94
799,13887.59
800,13869.26
801,13878.68
802,13925
803,13978.38
804,13989.35
805,13914.54
806,13775.64
807,13633.87
808,13547.07
809,13523
810,13533.08
811,13548.73
812,13552.66
813,13537.35
814,13496.33
815,13439.98
816,13395.65
817,13390.44
818,13423.87
819,13462.95
820,13473.51
821,13446.03
822,13404.76
823,13376.05
824,13368.28
825,13361.31
826,13332.62
827,13273.31
828,13199.54
829,13130.1
830,13079.54
831,13053.56
832,13056.63
833,13083.09
834,13102.21
835,13079.64
836,12999.82
837,12900.31
838,12827.85
839,12812.57
840,12830.9
841,12848.45
842,12839.25
843,12808.33
844,12767.82
845,12728.6
846,12696.05
847,12674.13
848,12665.32
849,12665.11
850,12666.94
851,12664.16
852,12649.62
853,12616
854,12559.77
855,12500.05
856,12464.44
857,12474.78
858,12514.5
859,12551.16
860,12556.11
861,12529.06
862,12482.68
863,12429.16
864,12376.8
865,12331.93
866,12300.56
867,12286.07
868,12290.41
869,12314.03
870,12342.08
871,12350.74
872,12319.1
873,12259
874,12202.88
875,12180.5
876,12186.15
877,12190.25
878,12165.27
879,12115.66
880,12068.73
881,12050.62
882,12064.63
883,12096.72
884,12132.5
885,12157.52
886,12157.29
887,12118.53
888,12047.68
889,11967.64
890,11901.07
891,11859.28
892,11843.69
893,11854.94
894,11885.52
895,11920.49
896,11944.87
897,11946.74
898,11917
899,11847.89
900,11757.03
901,11686.4
902,11676.62
903,11719.31
904,11757.98
905,11736.85
906,11658.14
907,11582.05
908,11568.66
909,11620.69
910,11682.64
911,11698.44
912,11656.02
913,11588.4
914,11529.67
915,11493.54
916,11472.71
917,11458.99
918,11444.84
919,11423.42
920,11388.25
921,11340.55
922,11289.36
923,11243.91
924,11208.83
925,11184.11
926,11169.46
927,11162.77
928,11160.12
929,11157.59
930,11153.22
931,11146.96
932,11138.7
933,11124.94
934,11098.93
935,11054.4
936,10997.86
937,10947.84
938,10922.38
939,10921.94
940,10930.92
941,10933.61
942,10922.21
943,10895.96
944,10854.84
945,10808
946,10772.39
947,10763.96
948,10779.34
949,10799.48
950,10806.05
951,10798.22
952,10788.64
953,10789.42
954,10800.25
955,10811.66
956,10814.25
957,10801.7
958,10769.83
959,10716.01
960,10655.34
961,10614.52
962,10617.25
963,10653.65
964,10693.36
965,10708.46
966,10697.48
967,10674
968,10650.68
969,10630.26
970,10610.35
971,10589
972,10568.76
973,10554.29
974,10548.94
975,10546.3
976,10535.6
977,10507.97
978,10467.26
979,10422.45
980,10382.04
981,10351.75
982,10336.3
983,10338.63
984,10352.29
985,10367.76
986,10376.19
987,10371.83
988,10349.88
989,10308.2
990,10255.99
991,10205.42
992,10167.43
993,10148.55
994,10154.29
995,10182.96
996,10209.34
997,10203.44
998,10151.54
999,10086.94
1000,10051.17
1001,10066.01
1002,10103.14
1003,10126.61
1004,10115.79
1005,10083.98
1006,10049
1007,10024.36
1008,10003.84
1009,9975.549
1010,9931.602
1011,9880.068
1012,9832.999
1013,9801.863
1014,9796.247
1015,9825.297
1016,9888.063
1017,9953.554
1018,9985.351
1019,9964.039
1020,9913.388
1021,9863.822
1022,9836.185
1023,9830.599
1024,9844.416
1025,9868.563
1026,9882.098
1027,9863.191
1028,9810.994
1029,9757.466
1030,9736.7
1031,9756.342
1032,9789.101
1033,9806.11
1034,9799.757
1035,9786.032
1036,9781.391
1037,9787.358
1038,9791.583
1039,9781.915
1040,9756.716
1041,9722.46
1042,9686.21
1043,9659.531
1044,9656.841
1045,9689.419
1046,9740.825
1047,9780.31
1048,9781.548
1049,9748.768
1050,9698.918
1051,9648.336
1052,9610.147
1053,9596.388
1054,9613.449
1055,9644.509
1056,9666.801
1057,9665.15
1058,9648.542
1059,9630.728
1060,9620.903
1061,9617.018
1062,9615.316
1063,9612.803
1064,9607.92
1065,9599.285
1066,9586.366
1067,9569.891
1068,9550.849
1069,9535.316
1070,9535.274
1071,9562.251
1072,9613.106
1073,9671.486
1074,9721.463
1075,9758.261
1076,9784.829
1077,9804.349
1078,9820.776
1079,9838.473
1080,9861.856
1081,9895.801
1082,9945.338
1083,10011.26
1084,10074.88
1085,10111.99
1086,10108.35
1087,10082.48
1088,10059.53
1089,10052.68
1090,10046.56
1091,10021.85
1092,9973.806
1093,9922.917
1094,9891.589
1095,9881.519
1096,9868.169
1097,9826.743
1098,9760.615
1099,9699.284
1100,9670.788
1101,9673.376
1102,9685.26
1103,9685.998
1104,9668.7
1105,9632.985
1106,9581.904
1107,9536.757
1108,9524.908
1109,9561.189
1110,9614.794
1111,9644.616
1112,9628.412
1113,9590.591
1114,9562.411
1115,9558.122
1116,9562.919
1117,9559.64
1118,9546.202
1119,9538.45
1120,9551.785
1121,9576.95
1122,9584.294
1123,9547.315
1124,9476.251
1125,9402.215
1126,9351.756
1127,9321.993
1128,9298.848
1129,9271.549
1130,9242.467
1131,9217.203
1132,9197.555
1133,9175.591
1134,9141.979
1135,9096.169
1136,9052.361
1137,9025.603
1138,9015.076
1139,9002.22
1140,8969.11
1141,8920.072
1142,8875.986
1143,8856.084
1144,8863.072
1145,8891.636
1146,8934.436
1147,8974.452
1148,8991.712
1149,8973.021
1150,8925.638
1151,8860.696
1152,8793.134
1153,8745.081
1154,8738.644
1155,8768.889
1156,8798.229
1157,8789.783
1158,8746.18
1159,8700.615
1160,8683.249
1161,8693.275
1162,8714.83
1163,8733.308
1164,8740.452
1165,8729.877
1166,8701.165
1167,8670.448
1168,8656.549
1169,8666.835
1170,8689.429
1171,8710.813
1172,8722.442
1173,8720.916
1174,8703.308
1175,8669.338
1176,8620.424
1177,8560.088
1178,8504.7
1179,8475.524
1180,8484.239
1181,8509.168
1182,8521.521
1183,8508.916
1184,8491.855
1185,8494.075
1186,8517.128
1187,8536.149
1188,8526.77
1189,8491.803
1190,8453.418
1191,8430.41
1192,8416.01
1193,8392.886
1194,8353.095
1195,8323.145
1196,8337.202
1197,8400.549
1198,8459.833
1199,8456.283
1200,8383.369
1201,8295.618
1202,8247.211
1203,8244.912
1204,8263.426
1205,8280.701
1206,8298.343
1207,8326.883
1208,8367.623
1209,8392.118
1210,8366.365
1211,8291.14
1212,8227.925
1213,8241.053
1214,8321.988
1215,8390.705
1216,8374.382
1217,8296.175
1218,8231.732
1219,8239.188
1220,8292.913
1221,8343.065
1222,8358.77
1223,8354.416
1224,8350.587
1225,8352
1226,8342.979
1227,8308.382
1228,8257.789
1229,8218.185
1230,8211.657
1231,8228.733
1232,8248.234
1233,8254.602
1234,8248.975
1235,8235.556
1236,8218.124
1237,8199.791
1238,8183.878
1239,8177.916
1240,8192.867
1241,8236.348
1242,8292.053
1243,8333.536
1244,8341.863
1245,8322.986
1246,8287.992
1247,8248.56
1248,8217.325
1249,8206.358
1250,8215.843
1251,8235.84
1252,8256.204
1253,8267.759
1254,8261.735
1255,8236.056
1256,8210.589
1257,8209.41
1258,8236.191
1259,8262.035
1260,8257.01
1261,8222.008
1262,8182.851
1263,8163.219
1264,8168.145
1265,8195.245
1266,8234.901
1267,8256.452
1268,8226.199
1269,8148.949
1270,8083.44
1271,8087.217
1272,8149.749
1273,8213.269
1274,8230.672
1275,8216.073
1276,8203.553
1277,8212.233
1278,8226.13
1279,8224.846
1280,8205.448
1281,8184.503
1282,8177.922
1283,8186.106
1284,8201.159
1285,8217.115
1286,8235.722
1287,8260.494
1288,8289.442
1289,8311.187
1290,8314.2
1291,8299.501
1292,8278.225
1293,8260.265
1294,8246.349
1295,8233.847
1296,8223.557
1297,8224.862
1298,8247.911
1299,8286.272
1300,8314.664
1301,8310.323
1302,8282.243
1303,8255.995
1304,8249.933
1305,8256.323
1306,8261.762
1307,8258.274
1308,8246.155
1309,8226.913
1310,8208.625
1311,8203.904
1312,8221.965
1313,8255.449
1314,8292.126
1315,8321.038
1316,8333.723
1317,8323.066
1318,8301.008
1319,8295.81
1320,8329.912
1321,8387.859
1322,8440.308
1323,8469.187
1324,8482.928
1325,8493.375
1326,8503.427
1327,8507.006
1328,8498.999
1329,8483.912
1330,8470.368
1331,8464.623
1332,8466.523
1333,8474.97
1334,8492.049
1335,8523.41
1336,8572.057
1337,8618.906
1338,8634.492
1339,8604.808
1340,8560.674
1341,8540.021
1342,8550.232
1343,8562.946
1344,8552.048
1345,8526.542
1346,8512.467
1347,8523.777
1348,8538.699
1349,8529.771
1350,8495.488
1351,8464.521
1352,8462.83
1353,8481.165
1354,8493.655
1355,8485.607
1356,8473.812
1357,8479.759
1358,8503.789
1359,8523.114
1360,8518.505
1361,8504.824
1362,8511.716
1363,8553.271
1364,8604.482
1365,8635.478
1366,8642.764
1367,8648.542
1368,8672.063
1369,8708.026
1370,8741.964
1371,8765.867
1372,8785.496
1373,8807.522
1374,8824.54
1375,8817.583
1376,8776.554
1377,8736.142
1378,8744.194
1379,8810.771
1380,8881.476
1381,8900.197
1382,8866.682
1383,8817.116
1384,8781.42
1385,8763.974
1386,8763.067
1387,8766.872
1388,8750.376
1389,8693.612
1390,8625.373
1391,8598.225
1392,8636.397
1393,8689.454
1394,8697.301
1395,8653.081
1396,8600.47
1397,8577.616
1398,8581.236
1399,8594.063
1400,8601.122
1401,8591.627
1402,8557.414
1403,8516.583
1404,8504.381
1405,8539.917
1406,8585.226
1407,8591.167
1408,8549.064
1409,8498.091
1410,8475.298
1411,8483.816
1412,8512.664
1413,8551.391
1414,8590.825
1415,8622.563
1416,8647.214
1417,8672.094
1418,8701.306
1419,8725.862
1420,8733.844
1421,8723.025
1422,8703.464
1423,8684.616
1424,8665.87
1425,8642.289
1426,8617.02
1427,8610.483
1428,8642.282
1429,8689.476
1430,8698.188
1431,8635.299
1432,8546.208
1433,8493.068
1434,8498.565
1435,8539.427
1436,8590.569
1437,8632.256
1438,8646.901
1439,8633.341
1440,8620.527
1441,8637.384
1442,8676.925
1443,8710.311
1444,8716.272
1445,8696.478
1446,8657.339
1447,8617.626
1448,8607.491
1449,8644.938
1450,8690.458
1451,8689.176
1452,8634.46
1453,8585.077
1454,8594.192
1455,8641.004
1456,8672.963
1457,8667.009
1458,8658.474
1459,8685.166
1460,8735.482
1461,8767.019
1462,8755.64
1463,8730.638
1464,8729.139
1465,8758.249
1466,8799.054
1467,8833.819
1468,8853.39
1469,8851.063
1470,8830.329
1471,8806.628
1472,8792.872
1473,8783.593
1474,8766.987
1475,8741.253
1476,8720.123
1477,8717.442
1478,8737.083
1479,8778.157
1480,8828.304
1481,8852.081
1482,8816.802
1483,8750.167
1484,8716.447
1485,8746.061
1486,8780.242
1487,8751.53
1488,8676.195
1489,8633.835
1490,8672.886
1491,8734.704
1492,8742.125
1493,8686.474
1494,8621.987
1495,8593.034
1496,8594.439
1497,8608.831
1498,8624.775
1499,8637.326
1500,8644.215
1501,8654.537
1502,8680.339
1503,8715.819
1504,8732.713
1505,8709.443
1506,8670.545
1507,8656.121
1508,8677.214
1509,8703.404
1510,8706.597
1511,8694.466
1512,8688.643
1513,8700.672
1514,8726.127
1515,8758.873
1516,8790.709
1517,8812.528
1518,8817.089
1519,8800.348
1520,8761.247
1521,8719.295
1522,8703.382
1523,8724.485
1524,8761.405
1525,8791.667
1526,8810.061
1527,8819.662
1528,8822.46
1529,8818.333
1530,8807.74
1531,8797.736
1532,8798.557
1533,8813.695
1534,8834.17
1535,8850.424
1536,8859.357
1537,8861.066
1538,8862.562
1539,8883.231
1540,8937.063
1541,8985.585
1542,8966.414
1543,8875.436
1544,8809.006
1545,8854.184
1546,8956.806
1547,9001.656
1548,8954.071
1549,8909.01
1550,8953.88
1551,9048.097
1552,9100.568
1553,9079.765
1554,9041.282
1555,9035.4
1556,9040.797
1557,9011.629
1558,8950.527
1559,8922.961
1560,8979.853
1561,9077.853
1562,9145.612
1563,9153.993
1564,9121.398
1565,9070.544
1566,9031.266
1567,9033.816
1568,9075.344
1569,9121.369
1570,9146.083
1571,9157.927
1572,9171.455
1573,9181.978
1574,9169.609
1575,9130.198
1576,9103.755
1577,9132.828
1578,9201.653
1579,9257.314
1580,9273.372
1581,9281.611
1582,9315.674
1583,9360.636
1584,9377.613
1585,9354.5
1586,9323.877
1587,9317.985
1588,9340.479
1589,9383.872
1590,9428.331
1591,9438.571
1592,9394.31
1593,9346.107
1594,9360.743
1595,9433.504
1596,9492.653
1597,9487.806
1598,9443.536
1599,9397.615
1600,9370.034
1601,9368.68
1602,9393.51
1603,9427.799
1604,9456.06
1605,9490.369
1606,9555.523
1607,9649.715
1608,9731.147
1609,9764.505
1610,9765.319
1611,9764.427
1612,9768.021
1613,9756.98
1614,9724.89
1615,9710.881
1616,9757.665
1617,9833.118
1618,9854.009
1619,9790.214
1620,9724.921
1621,9738.895
1622,9790.06
1623,9783.761
1624,9697.219
1625,9603.91
1626,9562.215
1627,9536.233
1628,9469.203
1629,9381.553
1630,9358.649
1631,9438.986
1632,9537.562
1633,9561.435
1634,9517.918
1635,9465.452
1636,9438.734
1637,9436.142
1638,9451.188
1639,9468.48
1640,9470.285
1641,9445.502
1642,9388.968
1643,9312.686
1644,9272.504
1645,9320.323
1646,9411.45
1647,9453.059
1648,9428.31
1649,9431.195
1650,9527.657
1651,9620.78
1652,9578.496
1653,9431.998
1654,9345.016
1655,9400.78
1656,9489.895
1657,9495.921
1658,9446.409
1659,9429.961
1660,9468.253
1661,9501.511
1662,9487.231
1663,9460.324
1664,9468.016
1665,9504.598
1666,9530.709
1667,9527.049
1668,9509.873
1669,9496.702
1670,9493.444
1671,9502.14
1672,9520.81
1673,9543.954
1674,9565.587
1675,9578.934
1676,9577.992
1677,9563.191
1678,9537.815
1679,9507.791
1680,9482.031
1681,9466.498
1682,9457.573
1683,9450.582
1684,9448.155
1685,9456.882
1686,9483.03
1687,9532.356
1688,9602.729
1689,9662.41
1690,9675.729
1691,9644.447
1692,9594.553
1693,9550.039
1694,9530.912
1695,9547.152
1696,9565.801
1697,9546.881
1698,9519.083
1699,9560.6
1700,9682.905
1701,9774.675
1702,9746.984
1703,9684.571
1704,9714.959
1705,9807.897
1706,9810.825
1707,9675.782
1708,9560.391
1709,9602.192
1710,9718.287
1711,9764.142
1712,9722.322
1713,9675.782
1714,9674.981
1715,9703.271
1716,9741.672
1717,9796.861
1718,9879.765
1719,9947.649
1720,9917.555
1721,9772.98
1722,9618.334
1723,9551.488
1724,9581.92
1725,9690.841
1726,9817.536
1727,9872.941
1728,9829.973
1729,9761.967
1730,9733.858
1731,9741.144
1732,9763.124
1733,9788.164
1734,9810.149
1735,9827.002
1736,9842.06
1737,9859.384
1738,9884.086
1739,9919.024
1740,9946.801
1741,9940.72
1742,9893.98
1743,9821.838
1744,9753.889
1745,9752.375
1746,9864.067
1747,10009.89
1748,10068.61
1749,10014.66
1750,9903.627
1751,9795.271
1752,9752.01
1753,9813.199
1754,9916.755
1755,9978.586
1756,9975.184
1757,9920.731
1758,9847.589
1759,9811.203
1760,9839.785
1761,9877.821
1762,9865.729
1763,9820.458
1764,9789.119
1765,9783.04
1766,9781.568
1767,9782.692
1768,9821.5
1769,9914.989
1770,9987.086
1771,9949.393
1772,9836.634
1773,9752.412
1774,9733.875
1775,9738.514
1776,9741.754
1777,9774.744
1778,9862.967
1779,9954.277
1780,9975.95
1781,9936.521
1782,9901.878
1783,9903.884
1784,9923.916
1785,9949.307
1786,9996.508
1787,10077.77
1788,10143.29
1789,10124.14
1790,10042.82
1791,9994.53
1792,10012.68
1793,10029.93
1794,9992.44
1795,9918.517
1796,9842.891
1797,9813.268
1798,9876.695
1799,9975.975
1800,9969.694
1801,9845.74
1802,9800.715
1803,9956.033
1804,10137.76
1805,10152.41
1806,10061.1
1807,10018.5
1808,10042.16
1809,10044.37
1810,9994.891
1811,9950.757
1812,9960.266
1813,10028.04
1814,10140.61
1815,10225.63
1816,10199.42
1817,10092
1818,10006.98
1819,9992.055
1820,10025.49
1821,10084.3
1822,10152.01
1823,10209.06
1824,10219.17
1825,10150.67
1826,10051.73
1827,10007.82
1828,10028
1829,10050.73
1830,10046.66
1831,10043.74
1832,10061.92
1833,10080.79
1834,10077.82
1835,10062.38
1836,10052.46
1837,10033.33
1838,9971.076
1839,9884.643
1840,9852.004
1841,9907.728
1842,9995.702
1843,10062.05
1844,10097.9
1845,10107.87
1846,10120.4
1847,10167.9
1848,10210.46
1849,10160.95
1850,10031.47
1851,9951.084
1852,9985.807
1853,10062.92
1854,10108.55
1855,10102.37
1856,10047.46
1857,10020.54
1858,10113.61
1859,10263.51
1860,10311.37
1861,10236.28
1862,10165.7
1863,10164.22
1864,10173.52
1865,10142.67
1866,10079.03
1867,10003.15
1868,9948.563
1869,9949.698
1870,10011.51
1871,10120.8
1872,10218.58
1873,10209.57
1874,10094.07
1875,10001.39
1876,9994.969
1877,9977.951
1878,9889.172
1879,9865.005
1880,10040.64
1881,10290.41
1882,10412.11
1883,10385.97
1884,10296.57
1885,10211.85
1886,10182.61
1887,10206.41
1888,10208.96
1889,10154.39
1890,10098.98
1891,10088.36
1892,10093.56
1893,10078.46
1894,10051.3
1895,10034.98
1896,10051.27
1897,10117.06
1898,10184.54
1899,10159.13
1900,10040.19
1901,9935.324
1902,9920.698
1903,10009.13
1904,10168.04
1905,10265.86
1906,10208.51
1907,10106.15
1908,10092.76
1909,10151.15
1910,10207.94
1911,10181.61
1912,9999.294
1913,9788.09
1914,9820.945
1915,10092.65
1916,10288.06
1917,10263.39
1918,10170
1919,10122.91
1920,10096.93
1921,10068.6
1922,10082.35
1923,10167.16
1924,10213.31
1925,10104.04
1926,9961.756
1927,9989.007
1928,10160.07
1929,10316.44
1930,10356.18
1931,10229.42
1932,10010.46
1933,9907.603
1934,9979.5
1935,10048.44
1936,10015.64
1937,9985.282
1938,10035.18
1939,10098.24
1940,10103.68
1941,10065.69
1942,10017.59
1943,9984.177
1944,9983.407
1945,10002.68
1946,10016.35
1947,10007.3
1948,9965.523
1949,9911.146
1950,9886.598
1951,9904.31
1952,9945.478
1953,9985.279
1954,9993.29
1955,9969.175
1956,9963.672
1957,10002.25
1958,10045
1959,10049.54
1960,9990.773
1961,9869.927
1962,9772.791
1963,9774.555
1964,9810.006
1965,9790.227
1966,9732.49
1967,9689.322
1968,9677.558
1969,9694.42
1970,9708.74
1971,9676.352
1972,9602.689
1973,9530.007
1974,9515.904
1975,9626.631
1976,9820.715
1977,9943.491
1978,9914.72
1979,9757.604
1980,9538.077
1981,9376.849
1982,9345.809
1983,9417.564
1984,9531.601
1985,9578.334
1986,9511.456
1987,9469.141
1988,9555.115
1989,9669.552
1990,9705.131
1991,9676.645
1992,9624.208
1993,9573.487
1994,9552.214
1995,9619.021
1996,9803.751
1997,9898.122
1998,9672.626
1999,9395.14
2000,9480.8
2001,9753.451
2002,9788.49
2003,9625.398
2004,9543.918
2005,9554.871
2006,9507.911
2007,9410.533
2008,9376.251
2009,9391.572
2010,9346.545
2011,9235.138
2012,9143.975
2013,9153.564
2014,9329.327
2015,9581.349
2016,9665.496
2017,9548.328
2018,9439.477
2019,9426.865
2020,9434.192
2021,9404.991
2022,9322.869
2023,9216.653
2024,9173.354
2025,9207.329
2026,9219.2
2027,9163.098
2028,9091.788
2029,9047.761
2030,9041.788
2031,9057.891
2032,9039.358
2033,8963.47
2034,8875.984
2035,8821.707
2036,8829.894
2037,8892.234
2038,8932.053
2039,8906.957
2040,8856.872
2041,8821.229
2042,8819.28
2043,8855.836
2044,8911.272
2045,8950.919
2046,8915.992
2047,8780.926
2048,8593.728
2049,8445.903
2050,8496.883
2051,8735.953
2052,8800.139
2053,8564.679
2054,8449.479
2055,8636.584
2056,8735.317
2057,8551.85
2058,8376.145
2059,8393.172
2060,8505.01
2061,8588.709
2062,8531.112
2063,8363.177
2064,8347.653
2065,8507.883
2066,8464.271
2067,8143.946
2068,7974.417
2069,8102.003
2070,8228.403
2071,8209.073
2072,8143.111
2073,8123.25
2074,8209.968
2075,8332.26
2076,8283.336
2077,8103.456
2078,8083.59
2079,8232.435
2080,8289.641
2081,8188.369
2082,8037.268
2083,7917.498
2084,7877.354
2085,7876.049
2086,7824.197
2087,7791.458
2088,7926.047
2089,8150.309
2090,8274.87
2091,8249.956
2092,8105.786
2093,7942.962
2094,7867.365
2095,7829.446
2096,7752.549
2097,7725.92
2098,7830.557
2099,7870.953
2100,7690.703
2101,7568.594
2102,7706.363
2103,7739.571
2104,7432.075
2105,7183.667
2106,7270.475
2107,7461.506
2108,7531.771
2109,7397.578
2110,7125.672
2111,6988.595
2112,7086.465
2113,7272.044
2114,7400.697
2115,7357.113
2116,7189.257
2117,7079.851
2118,7069.136
2119,7092.373
2120,7121.439
2121,7149.413
2122,7151.644
2123,7102.008
2124,7020.028
2125,6954.395
2126,7009.261
2127,7204.305
2128,7177.951
2129,6760.642
2130,6602.782
2131,7012.721
2132,7195.111
2133,6825.32
2134,6662.355
2135,6931.065
2136,6991.176
2137,6733.258
2138,6653.62
2139,6738.218
2140,6570.728
2141,6275.986
2142,6277.51
2143,6542.425
2144,6816.751
2145,6868.065
2146,6580.658
2147,6301.918
2148,6325.493
2149,6395.165
2150,6288.705
2151,6102.097
2152,5969.77
2153,6011.746
2154,6163.188
2155,6147.063
2156,5973.068
2157,5905.26
2158,5961.176
2159,5992.338
2160,5899.89
2161,5657.269
2162,5496.509
2163,5619.849
2164,5775.548
2165,5731.957
2166,5596.675
2167,5472.245
2168,5350.358
2169,5247.836
2170,5229.375
2171,5348.521
2172,5624.651
2173,5832.614
2174,5664.791
2175,5383.001
2176,5381.763
2177,5447.564
2178,5304.611
2179,5068.479
2180,4881.836
2181,4778.677
2182,4784.905
2183,4926.384
2184,5043.939
2185,4841.679
2186,4579.492
2187,4771.549
2188,5040.341
2189,4820.844
2190,4518.975
2191,4563.877
2192,4645.317
2193,4562.053
2194,4559.091
2195,4667.994
2196,4618.033
2197,4454.4
2198,4451.378
2199,4512.534
2200,4410.916
2201,4279.349
2202,4292.605
2203,4376.16
2204,4439.711
2205,4461.137
2206,4404.352
2207,4215.951
2208,4010.792
2209,4006.732
2210,4130.473
2211,4191.903
2212,4162.258
2213,4076.476
2214,4008.971
2215,3980.21
2216,3907.908
2217,3812.581
2218,3821.076
2219,3866.381
2220,3779.352
2221,3592.753
2222,3442.313
2223,3539.666
2224,3850.829
2225,3797.994
2226,3317.652
2227,3052.565
2228,3145.356
2229,3330.214
2230,3408.031
2231,3293.212
2232,3218.754
2233,3319.134
2234,3330.798
2235,3183.444
2236,3112.741
2237,3097.046
2238,2948.559
2239,2819.144
2240,2904.849
2241,2993.209
2242,2959.555
2243,3051.712
2244,3107.034
2245,2513.954
2246,1768.964
2247,1878.911
2248,2315.813
2249,2326.425
2250,2246.672
2251,2384.084
2252,2637.525
2253,2788.428
2254,2594.481
2255,2248.758
2256,2098.569
2257,2178.562
2258,2380.981
2259,2475.967
2260,2400.63
2261,2305.735
2262,2272.797
2263,2318.766
2264,2399.302
2265,2415.874
2266,2185.342
2267,1794.694
2268,1695.093
2269,1821.17
2270,1775.969
2271,1657.7
2272,1673.396
2273,1764.584
2274,1791.791
2275,1593.802
2276,1406.491
2277,1641.431
2278,1766.943
2279,1323.067
2280,1245.27
2281,1813.26
2282,1962.973
2283,1545.411
2284,1178.055
2285,1255.524
2286,1798.179
2287,2035.56
2288,1698.859
2289,1382.45
2290,1262.364
2291,1195.286
2292,1138.41
2293,1109.48
2294,1182.431
2295,1319.661
2296,1351.743
2297,1203.797
2298,911.3496
2299,725.5317
2300,807.8073
