400,73581.58
401,73520.02
402,73506.8
403,73536.45
404,73603.33
405,73693.34
406,73753.38
407,73719.21
408,73532.65
409,73220.97
410,72877.23
411,72595.27
412,72420.77
413,72306.35
414,72194.27
415,72045.09
416,71915.9
417,71895.55
418,72065.39
419,72382.71
420,72699.59
421,72865.91
422,72798.9
423,72556.56
424,72214.37
425,71850.14
426,71557.17
427,71433.84
428,71568.77
429,71877.44
430,72123.17
431,72066.14
432,71617.67
433,71010.85
434,70518.95
435,70363.27
436,70477.22
437,70693.49
438,70850.85
439,70883.04
440,70805.24
441,70635.3
442,70400.05
443,70144.7
444,69916.43
445,69753.4
446,69647.09
447,69573.91
448,69511.08
449,69447.58
450,69381.57
451,69311.56
452,69240.54
453,69179.69
454,69141.02
455,69124.56
456,69076.52
457,68928.04
458,68621.02
459,68227.41
460,67907.3
461,67819.16
462,67978.55
463,68182.54
464,68210.63
465,67923.51
466,67475.39
467,67086.78
468,66951.21
469,67017.48
470,67100.25
471,67018.06
472,66736.09
473,66397.78
474,66156.58
475,66105.41
476,66171.24
477,66252.88
478,66259.7
479,66168.98
480,65986.16
481,65718.34
482,65404.1
483,65110.76
484,64905.95
485,64803.9
486,64713.04
487,64529.77
488,64191.77
489,63825.41
490,63610.97
491,63706.67
492,64023.45
493,64312.78
494,64328.96
495,64011.28
496,63550.71
497,63155.34
498,62961.37
499,62893.11
500,62836
501,62693.55
502,62491.41
503,62306.7
504,62213.93
505,62241.23
506,62375.36
507,62601.36
508,62864.7
509,63037.99
510,62986.54
511,62629.8
512,62104.16
513,61600
514,61289.08
515,61175.2
516,61170.48
517,61188.1
518,61186.66
519,61174.87
520,61163.98
521,61155.38
522,61128.19
523,61058.57
524,60927.18
525,60736
526,60493.51
527,60209.87
528,59915.04
529,59651.39
530,59459.99
531,59335.27
532,59213.87
533,59029.26
534,58766.98
535,58541.61
536,58486.86
537,58685.68
538,58956.63
539,59032.51
540,58677.77
541,58020.82
542,57428.66
543,57262.04
544,57569.54
545,58007.6
546,58209.86
547,57980.8
548,57541.29
549,57173.78
550,57094.56
551,57192.55
552,57254.5
553,57092.01
554,56778.86
555,56550.03
556,56633.5
557,57009.16
558,57371.43
559,57401.38
560,56965.55
561,56331.56
562,55818.26
563,55661.2
564,55742.96
565,55852.11
566,55799.39
567,55583.66
568,55301.53
569,55047.97
570,54873.57
571,54786.61
572,54793.39
573,54881.2
574,55004.31
575,55113.91
576,55166.21
577,55133.36
578,54990.86
579,54727.02
580,54411.68
581,54146.49
582,54024.25
583,54023.41
584,54040.46
585,53972.96
586,53802.07
587,53614.7
588,53503.86
589,53497.97
590,53479.68
591,53312.17
592,52912.6
593,52423.7
594,52046.91
595,51954.04
596,52084.73
597,52266.78
598,52335.47
599,52252.27
600,52084.88
601,51903.41
602,51749.4
603,51623.25
604,51522.21
605,51438.21
606,51349.89
607,51233.95
608,51080.23
609,50938.47
610,50875.21
611,50943.08
612,51078.89
613,51161.53
614,51077.06
615,50835.62
616,50552.63
617,50344.59
618,50252.97
619,50213.34
620,50153.73
621,50033.38
622,49885.56
623,49754.14
624,49665.14
625,49570.99
626,49405.28
627,49119.64
628,48797.36
629,48580.24
630,48596.54
631,48788.58
632,48961.8
633,48924.51
634,48650.95
635,48312.48
636,48090.29
637,48071.86
638,48164.95
639,48257.3
640,48265.94
641,48200.4
642,48088.62
643,47955.16
644,47807.16
645,47645.85
646,47474.98
647,47322.32
648,47228.79
649,47231.84
650,47307.05
651,47376.45
652,47362.05
653,47244.24
654,47082.12
655,46939.91
656,46852.31
657,46791.8
658,46723.03
659,46618.32
660,46475.73
661,46298.8
662,46095.48
663,45898.29
664,45748.13
665,45679.92
666,45674.57
667,45683.69
668,45661.14
669,45598.46
670,45518.35
671,45443.6
672,45370.55
673,45262.64
674,45081.86
675,44829.31
676,44579.62
677,44415.04
678,44380.55
679,44414.35
680,44435.85
681,44379.79
682,44248.48
683,44063.21
684,43847.09
685,43637.13
686,43476.24
687,43402.81
688,43405.56
689,43441.39
690,43467.86
691,43461.86
692,43418.35
693,43333.2
694,43210.33
695,43064.5
696,42911.14
697,42760.44
698,42612.27
699,42465.38
700,42325.62
701,42219.56
702,42177.39
703,42214.62
704,42284.08
705,42321.89
706,42274.98
707,42158.43
708,42014.25
709,41882.08
710,41778.72
711,41707.91
712,41671.49
713,41643.01
714,41573.44
715,41415.44
716,41181.58
717,40951.14
718,40805.64
719,40773.78
720,40802.73
721,40833.08
722,40824.23
723,40775.93
724,40693.18
725,40586.2
726,40481.11
727,40406.87
728,40376.88
729,40337.34
730,40216.61
731,39964.99
732,39666.32
733,39454.75
734,39444.09
735,39572.59
736,39687.21
737,39646.42
738,39461.24
739,39249.91
740,39126.98
741,39095.73
742,39055.12
743,38903.33
744,38637.82
745,38379.22
746,38254.1
747,38307.8
748,38452.33
749,38587.93
750,38647.42
751,38634.25
752,38561.16
753,38441.56
754,38290.83
755,38124.69
756,37962.04
757,37834.63
758,37777.26
759,37809.32
760,37870.05
761,37872.74
762,37746.91
763,37534.45
764,37325.41
765,37200.74
766,37155.97
767,37139.11
768,37100.78
769,37030.13
770,36943.66
771,36857.83
772,36778.57
773,36702.33
774,36625.28
775,36544.83
776,36459.8
777,36369.13
778,36273.93
779,36178.35
780,36086.75
781,36000.55
782,35916.04
783,35829
784,35737.94
785,35647.43
786,35562.75
787,35488.75
788,35428.89
789,35386.42
790,35358.98
791,35324.92
792,35258.41
793,35143.95
794,35010.64
795,34899.62
796,34842.29
797,34817.91
798,34788.06
799,34720.61
800,34625.1
801,34528.42
802,34453.25
803,34387
804,34299.25
805,34163.51
806,33995.32
807,33835.8
808,33723.76
809,33664.11
810,33637.17
811,33622.79
812,33599.88
813,33546.57
814,33442.34
815,33296.04
816,33146.07
817,33031.1
818,32962.93
819,32921.66
820,32885.87
821,32843.26
822,32794.09
823,32739.55
824,32682.98
825,32631.21
826,32591.26
827,32562.94
828,32532.7
829,32485.69
830,32415.73
831,32335.14
832,32258.59
833,32193.95
834,32132.56
835,32063.29
836,31976.97
837,31869.96
838,31739.55
839,31590.39
840,31450.92
841,31354.24
842,31320.15
843,31318.93
844,31309.48
845,31259.14
846,31170.4
847,31055
848,30926.65
849,30808.55
850,30726.71
851,30699.91
852,30708.28
853,30719.07
854,30703.16
855,30652.85
856,30568.51
857,30454.31
858,30340.31
859,30267.21
860,30267.52
861,30312.34
862,30344.81
863,30314.71
864,30226.91
865,30113.76
866,30005.53
867,29912.32
868,29833.31
869,29767.01
870,29706.02
871,29639.57
872,29558.84
873,29477.58
874,29423.7
875,29421.06
876,29441.86
877,29423.64
878,29309.85
879,29129.22
880,28971.42
881,28920.96
882,28972.74
883,29053.83
884,29093.32
885,29074.13
886,29022.11
887,28963.08
888,28904.16
889,28836.85
890,28753.37
891,28666.76
892,28608.21
893,28607.2
894,28651.04
895,28688.96
896,28671.23
897,28593.45
898,28493.41
899,28408.98
900,28347.46
901,28286.85
902,28205.29
903,28109.32
904,28033.3
905,28011.03
906,28038.75
907,28075.16
908,28078.62
909,28035.32
910,27959.67
911,27867.06
912,27768.63
913,27671.05
914,27580.74
915,27502.11
916,27437.53
917,27388.98
918,27350.45
919,27307.74
920,27246.71
921,27162.3
922,27058.78
923,26941.29
924,26825.09
925,26735.76
926,26697.68
927,26698.45
928,26688.66
929,26619.79
930,26496.19
931,26374.51
932,26310.98
933,26308.69
934,26319.29
935,26294.32
936,26223.92
937,26134.54
938,26053.09
939,25988.64
940,25933.95
941,25881.55
942,25830.59
943,25786.05
944,25752.75
945,25729.02
946,25707.7
947,25681.88
948,25651.31
949,25621.12
950,25596.27
951,25576.71
952,25558.52
953,25537.8
954,25512.23
955,25480.67
956,25442.1
957,25396.7
958,25345.52
959,25289.88
960,25234.21
961,25185.01
962,25147.9
963,25119.11
964,25089.05
965,25049.18
966,25001.17
967,24952.52
968,24910
969,24872.86
970,24836.45
971,24797.37
972,24762.72
973,24744.69
974,24751.56
975,24762.99
976,24745.87
977,24673.69
978,24563.44
979,24449.7
980,24362.63
981,24306.07
982,24274.21
983,24261.08
984,24259.92
985,24263.74
986,24265.89
987,24261.34
988,24245.53
989,24215.14
990,24171.96
991,24119.15
992,24061.06
993,24006.76
994,23966.37
995,23943.09
996,23917.44
997,23865.31
998,23774.5
999,23667.03
1000,23570.97
1001,23503.59
1002,23454.78
1003,23410.27
1004,23361.87
1005,23314.95
1006,23276.66
1007,23250.9
1008,23226.53
1009,23188.12
1010,23128.65
1011,23074.75
1012,23061.4
1013,23105.7
1014,23163.05
1015,23175.61
1016,23111.63
1017,23016.59
1018,22950.08
1019,22944.99
1020,22966.39
1021,22968.93
1022,22928.52
1023,22867.12
1024,22812.56
1025,22780.41
1026,22763.69
1027,22752.99
1028,22740.56
1029,22721.14
1030,22689.8
1031,22646.29
1032,22596.49
1033,22546.65
1034,22501.5
1035,22464.11
1036,22437.29
1037,22420.57
1038,22410.41
1039,22402.9
1040,22390.02
1041,22360.59
1042,22305.52
1043,22240.02
1044,22194.73
1045,22195.32
1046,22221.98
1047,22231.45
1048,22188.11
1049,22109.24
1050,22034.14
1051,21996.04
1052,21996.17
1053,22025.18
1054,22071.16
1055,22111.59
1056,22121.23
1057,22085.7
1058,22025.08
1059,21966.25
1060,21927.3
1061,21904.7
1062,21891.63
1063,21884.61
1064,21886.48
1065,21900.62
1066,21919.39
1067,21918.7
1068,21874.34
1069,21798.49
1070,21745.58
1071,21769.01
1072,21858.45
1073,21946.14
1074,21967.62
1075,21925.55
1076,21869.04
1077,21844.23
1078,21863.34
1079,21920.75
1080,22009.2
1081,22111.84
1082,22208.08
1083,22281.11
1084,22331.12
1085,22363.23
1086,22380.47
1087,22379.23
1088,22354.54
1089,22309.09
1090,22263.78
1091,22241.84
1092,22243.37
1093,22228.38
1094,22154.19
1095,22023.58
1096,21896.98
1097,21835.23
1098,21834.58
1099,21831.33
1100,21765.29
1101,21646.41
1102,21531.79
1103,21471.94
1104,21457.98
1105,21452.52
1106,21425.39
1107,21385.89
1108,21356.55
1109,21352.87
1110,21364.94
1111,21377.06
1112,21377.81
1113,21366.16
1114,21342.77
1115,21313.18
1116,21291.36
1117,21291.59
1118,21312.63
1119,21334.81
1120,21337.91
1121,21310.42
1122,21248.05
1123,21149.2
1124,21036.71
1125,20947.27
1126,20909.07
1127,20896.92
1128,20865.34
1129,20783.63
1130,20679.64
1131,20595.6
1132,20553.4
1133,20523.07
1134,20466.85
1135,20373.27
1136,20274.9
1137,20207.68
1138,20183.03
1139,20185.03
1140,20196.42
1141,20201.49
1142,20185.69
1143,20137.84
1144,20073.82
1145,20022.63
1146,20006.36
1147,20012.7
1148,20018.79
1149,20007.43
1150,19978.41
1151,19934.77
1152,19883.42
1153,19838.63
1154,19815.07
1155,19813.95
1156,19820.31
1157,19819.08
1158,19808.08
1159,19795.14
1160,19787.05
1161,19780.25
1162,19766.11
1163,19738.48
1164,19702.94
1165,19668.51
1166,19645.05
1167,19644.74
1168,19679.88
1169,19742.6
1170,19791.06
1171,19781.92
1172,19713.88
1173,19629.34
1174,19569.34
1175,19536.54
1176,19509.08
1177,19468.29
1178,19417.66
1179,19369.09
1180,19334.33
1181,19324.43
1182,19350.17
1183,19402.48
1184,19432.63
1185,19388.78
1186,19272.51
1187,19149.03
1188,19082.64
1189,19075.89
1190,19087.39
1191,19080.58
1192,19057.92
1193,19038.01
1194,19032.01
1195,19023.79
1196,18991.1
1197,18928.94
1198,18867.32
1199,18839.44
1200,18845.15
1201,18845.39
1202,18803.05
1203,18733
1204,18685.31
1205,18699.84
1206,18750.19
1207,18784.87
1208,18769.82
1209,18727.08
1210,18689.81
1211,18676.93
1212,18682.55
1213,18698.51
1214,18720.68
1215,18748.91
1216,18782.97
1217,18820.09
1218,18856.09
1219,18885.82
1220,18899.68
1221,18886.82
1222,18847.49
1223,18808.52
1224,18799.82
1225,18821.61
1226,18835.92
1227,18805.37
1228,18733.64
1229,18653.28
1230,18593.89
1231,18563.77
1232,18563.3
1233,18587.53
1234,18615.77
1235,18624.74
1236,18609.04
1237,18590.62
1238,18592.09
1239,18608.83
1240,18614.08
1241,18585.64
1242,18537.69
1243,18499.78
1244,18490.46
1245,18491.76
1246,18478.41
1247,18442.19
1248,18402.84
1249,18381.82
1250,18384.28
1251,18401.45
1252,18424.41
1253,18446.33
1254,18461.26
1255,18465.01
1256,18459.1
1257,18446.31
1258,18432.7
1259,18429.59
1260,18447.48
1261,18475.91
1262,18487.46
1263,18461.44
1264,18424.06
1265,18420.15
1266,18470.96
1267,18528.5
1268,18533.2
1269,18473.95
1270,18407.54
1271,18391
1272,18418.63
1273,18441.17
1274,18419.23
1275,18370.01
1276,18329.17
1277,18318.81
1278,18329.15
1279,18346.17
1280,18363.21
1281,18381.91
1282,18403.32
1283,18419.08
1284,18415.77
1285,18388.56
1286,18365.6
1287,18382.57
1288,18446.85
1289,18517.65
1290,18551.39
1291,18536.74
1292,18488.38
1293,18421.98
1294,18354.86
1295,18304.95
1296,18285.4
1297,18297.3
1298,18339.36
1299,18392.86
1300,18419.35
1301,18386.67
1302,18328.41
1303,18312.48
1304,18378.31
1305,18463.49
1306,18484.07
1307,18415.94
1308,18325.97
1309,18283.88
1310,18296.3
1311,18326.41
1312,18344.4
1313,18357.75
1314,18384.8
1315,18429.63
1316,18468.67
1317,18476.89
1318,18460.07
1319,18450.43
1320,18474.75
1321,18522.46
1322,18569.25
1323,18598.74
1324,18613.11
1325,18617.28
1326,18617.74
1327,18622.59
1328,18638.97
1329,18666.71
1330,18702.57
1331,18741.8
1332,18775.89
1333,18795.92
1334,18800.89
1335,18798.61
1336,18796.79
1337,18798.85
1338,18806.21
1339,18819.21
1340,18835.27
1341,18851.36
1342,18868.95
1343,18894.67
1344,18932.04
1345,18956.78
1346,18931.1
1347,18840.3
1348,18737.54
1349,18686.8
1350,18703.62
1351,18747.15
1352,18776.49
1353,18776.01
1354,18742.04
1355,18683.69
1356,18645.43
1357,18675.75
1358,18763.96
1359,18834.58
1360,18822.77
1361,18763.93
1362,18736.92
1363,18783.67
1364,18853.15
1365,18882.64
1366,18868.91
1367,18866.68
1368,18922.51
1369,19018.57
1370,19112.89
1371,19176.64
1372,19208.99
1373,19213.19
1374,19201.41
1375,19193.09
1376,19204.07
1377,19231.4
1378,19266.48
1379,19299.33
1380,19317.84
1381,19311.46
1382,19291.22
1383,19282.32
1384,19298.29
1385,19309.14
1386,19275.65
1387,19192.59
1388,19099.04
1389,19034.26
1390,19014.15
1391,19043.18
1392,19108.07
1393,19149.34
1394,19103.38
1395,18979.61
1396,18856.76
1397,18802.51
1398,18808.42
1399,18840.37
1400,18868.27
1401,18869.45
1402,18825.15
1403,18754.66
1404,18702.15
1405,18698.17
1406,18724.32
1407,18752.05
1408,18766.7
1409,18770.1
1410,18765.42
1411,18758.32
1412,18755.55
1413,18764.05
1414,18791.17
1415,18843.27
1416,18912.09
1417,18978.47
1418,19023.73
1419,19032.24
1420,18989.99
1421,18917.27
1422,18877.75
1423,18924.08
1424,19009.44
1425,19044.03
1426,18985.48
1427,18893.36
1428,18837.07
1429,18839.46
1430,18889.51
1431,18968.29
1432,19030.94
1433,19028.31
1434,18966.32
1435,18914.99
1436,18932.85
1437,18983.71
1438,18995.49
1439,18943.28
1440,18889.06
1441,18896.65
1442,18948.07
1443,18975.58
1444,18942.43
1445,18903.69
1446,18927.46
1447,19009.42
1448,19078.52
1449,19079.26
1450,19038.97
1451,19008.06
1452,19010.7
1453,19035.41
1454,19067.38
1455,19085.96
1456,19068.21
1457,19018.15
1458,18992.82
1459,19048.02
1460,19154.31
1461,19229.17
1462,19222.83
1463,19181.42
1464,19165.33
1465,19186.25
1466,19213.53
1467,19223.73
1468,19228.5
1469,19247.76
1470,19280.61
1471,19301.78
1472,19291.23
1473,19266.93
1474,19259.98
1475,19280.22
1476,19304.5
1477,19310.23
1478,19301.75
1479,19296.09
1480,19303.79
1481,19322.14
1482,19345.78
1483,19358.29
1484,19336.61
1485,19274.06
1486,19206.86
1487,19174.95
1488,19171.78
1489,19155.56
1490,19101.8
1491,19045.25
1492,19030.42
1493,19054
1494,19068.79
1495,19041.31
1496,19000.36
1497,18989.24
1498,19019.94
1499,19070.34
1500,19115.66
1501,19126.79
1502,19074.65
1503,18980.11
1504,18926.95
1505,18984.1
1506,19113.08
1507,19238.26
1508,19308.4
1509,19307.12
1510,19230.97
1511,19142.3
1512,19128.5
1513,19207.6
1514,19288.35
1515,19287.66
1516,19250.36
1517,19275.78
1518,19382.46
1519,19451.34
1520,19373.71
1521,19225.49
1522,19167.17
1523,19262.87
1524,19403.2
1525,19474.02
1526,19471.06
1527,19442.78
1528,19421.34
1529,19408.04
1530,19402.35
1531,19415.57
1532,19464.6
1533,19543.87
1534,19606.42
1535,19608.96
1536,19575.31
1537,19561.54
1538,19590.02
1539,19621.96
1540,19617.45
1541,19578.6
1542,19527.19
1543,19484.09
1544,19468.46
1545,19495.28
1546,19550.63
1547,19607.9
1548,19648.75
1549,19668.22
1550,19665.1
1551,19654.57
1552,19658.08
1553,19674.19
1554,19668.06
1555,19612.81
1556,19543.53
1557,19516.58
1558,19548.9
1559,19606.13
1560,19656.94
1561,19702.67
1562,19753.92
1563,19797.09
1564,19791.39
1565,19716.88
1566,19647.24
1567,19676.7
1568,19810.1
1569,19966.94
1570,20081.77
1571,20153.31
1572,20193.36
1573,20205.03
1574,20184.55
1575,20137.79
1576,20097.33
1577,20097.96
1578,20146.4
1579,20231.36
1580,20334.09
1581,20420.44
1582,20459.75
1583,20467.94
1584,20483.93
1585,20516.08
1586,20521.92
1587,20468.66
1588,20412.75
1589,20442.31
1590,20560.73
1591,20664.71
1592,20674.49
1593,20645.22
1594,20665.68
1595,20748.83
1596,20836.48
1597,20884.96
1598,20904.69
1599,20916.3
1600,20936.88
1601,20981.04
1602,21051.87
1603,21127.56
1604,21184.91
1605,21216.09
1606,21220.89
1607,21214.17
1608,21233.22
1609,21304.89
1610,21392.32
1611,21440.72
1612,21457.36
1613,21513.18
1614,21647.2
1615,21783.47
1616,21829.3
1617,21782.56
1618,21703.12
1619,21628.65
1620,21547.54
1621,21445.09
1622,21329.13
1623,21217.23
1624,21116.91
1625,21022.28
1626,20928.47
1627,20839.18
1628,20760.36
1629,20696.25
1630,20649.72
1631,20620.82
1632,20602.68
1633,20587.88
1634,20574.16
1635,20561.86
1636,20550.68
1637,20539.39
1638,20527.08
1639,20514.96
1640,20504.78
1641,20496.83
1642,20490.1
1643,20481.27
1644,20461.15
1645,20422.16
1646,20378.82
1647,20356.72
1648,20363.55
1649,20380.94
1650,20388.74
1651,20368.39
1652,20304.78
1653,20232.72
1654,20227.5
1655,20316.89
1656,20417.57
1657,20443.65
1658,20403.87
1659,20348.04
1660,20316.54
1661,20338.03
1662,20416.74
1663,20474.53
1664,20427.11
1665,20327.94
1666,20317.57
1667,20434.73
1668,20540.28
1669,20512.29
1670,20407.17
1671,20333.95
1672,20330.1
1673,20370.33
1674,20428.23
1675,20479.79
1676,20504.36
1677,20503.48
1678,20488.24
1679,20470.93
1680,20465.22
1681,20474.96
1682,20473.73
1683,20434.87
1684,20383.7
1685,20373.26
1686,20428.5
1687,20534.76
1688,20666.73
1689,20770.06
1690,20789.59
1691,20743.04
1692,20694.92
1693,20675.45
1694,20657.67
1695,20618.46
1696,20575.38
1697,20555.98
1698,20568.99
1699,20609.29
1700,20654.39
1701,20651.22
1702,20565.51
1703,20471.17
1704,20468.58
1705,20556.05
1706,20652.36
1707,20699.25
1708,20686.51
1709,20620.82
1710,20566.92
1711,20601.67
1712,20702.25
1713,20767.34
1714,20750.04
1715,20711.09
1716,20708.83
1717,20729.6
1718,20739.47
1719,20733.34
1720,20727.96
1721,20724.14
1722,20693.2
1723,20620.83
1724,20571.85
1725,20624.51
1726,20738.6
1727,20792.73
1728,20752.53
1729,20725.95
1730,20788.83
1731,20839.75
1732,20751.32
1733,20585.98
1734,20517.55
1735,20593.71
1736,20687.97
1737,20706.23
1738,20699.52
1739,20736.98
1740,20796.38
1741,20812.4
1742,20771.76
1743,20718.83
1744,20688.11
1745,20681.85
1746,20698.78
1747,20745.85
1748,20830.53
1749,20914.96
1750,20923.46
1751,20846.38
1752,20798.32
1753,20865.97
1754,20956.51
1755,20942.28
1756,20846
1757,20781.25
1758,20791.64
1759,20826.8
1760,20845.13
1761,20849.25
1762,20848.45
1763,20843.39
1764,20831.94
1765,20828.47
1766,20861.8
1767,20927.29
1768,20956.54
1769,20900.19
1770,20818.91
1771,20791.52
1772,20788.45
1773,20720.96
1774,20604.28
1775,20577.34
1776,20703.56
1777,20842.09
1778,20855.25
1779,20795.01
1780,20770.47
1781,20787.94
1782,20781.55
1783,20744.75
1784,20757.94
1785,20865.71
1786,20986.58
1787,21029.16
1788,20990.03
1789,20901.72
1790,20811.34
1791,20777
1792,20813.25
1793,20865.39
1794,20888.99
1795,20892.67
1796,20891.86
1797,20876.17
1798,20827.2
1799,20775.29
1800,20790.11
1801,20876.05
1802,20932.28
1803,20888.5
1804,20800.27
1805,20741.9
1806,20747.66
1807,20831.5
1808,20942.94
1809,20983.04
1810,20927.9
1811,20864.28
1812,20857.45
1813,20888.3
1814,20921.12
1815,20908.93
1816,20810.98
1817,20709.62
1818,20763.61
1819,20956.43
1820,21058.3
1821,20951.4
1822,20797.28
1823,20756.19
1824,20817.36
1825,20921.77
1826,20992.78
1827,20949.88
1828,20819.45
1829,20725.81
1830,20722.94
1831,20742.72
1832,20736.75
1833,20750.72
1834,20828.59
1835,20902.23
1836,20875.42
1837,20791.3
1838,20778.29
1839,20837.44
1840,20826.68
1841,20701.52
1842,20622.12
1843,20706.21
1844,20838.86
1845,20876.41
1846,20822.57
1847,20738.33
1848,20662.99
1849,20620.48
1850,20623.82
1851,20673.48
1852,20751.06
1853,20802.26
1854,20788.02
1855,20737.25
1856,20693.38
1857,20697.27
1858,20780.41
1859,20874.49
1860,20851.41
1861,20718.28
1862,20626.82
1863,20658.21
1864,20757.47
1865,20853.46
1866,20868.56
1867,20752.61
1868,20601.3
1869,20541.72
1870,20568.62
1871,20608.64
1872,20614.88
1873,20564.4
1874,20485.06
1875,20471.25
1876,20566.08
1877,20692.87
1878,20775.02
1879,20791.03
1880,20737.96
1881,20651.25
1882,20576.81
1883,20524.82
1884,20486.2
1885,20477.71
1886,20537.85
1887,20637.67
1888,20655.45
1889,20536.02
1890,20379.18
1891,20281.71
1892,20264.32
1893,20325.36
1894,20428.03
1895,20523.45
1896,20560.13
1897,20492.05
1898,20376.55
1899,20346.74
1900,20418.88
1901,20474.27
1902,20447.24
1903,20374.28
1904,20303.52
1905,20287.41
1906,20345.75
1907,20369.88
1908,20258.47
1909,20136.82
1910,20183.79
1911,20306.24
1912,20282.95
1913,20181.48
1914,20283.97
1915,20556.11
1916,20610.84
1917,20327.86
1918,20035.17
1919,19960.23
1920,20014.94
1921,20079.92
1922,20074.71
1923,19958.16
1924,19839.11
1925,19851.17
1926,19988.05
1927,20179.88
1928,20314.39
1929,20266.1
1930,20108.1
1931,20068.81
1932,20166.13
1933,20181.02
1934,20046.8
1935,19945.32
1936,19972.89
1937,20007.32
1938,19947.72
1939,19829.63
1940,19716.08
1941,19683.99
1942,19782.2
1943,19889.63
1944,19860.43
1945,19790.69
1946,19861.78
1947,19999.39
1948,19989.6
1949,19835.55
1950,19707.24
1951,19661.14
1952,19635.25
1953,19618.21
1954,19670.71
1955,19776.83
1956,19784.32
1957,19633.69
1958,19494.44
1959,19483.54
1960,19486.9
1961,19407.08
1962,19352.7
1963,19429.79
1964,19512.62
1965,19447.22
1966,19320.61
1967,19282.56
1968,19266.57
1969,19129.82
1970,18994.77
1971,19113.65
1972,19380.72
1973,19446.49
1974,19255.72
1975,19016.03
1976,18910.6
1977,19080.27
1978,19411.61
1979,19472.9
1980,19152.77
1981,18864.5
1982,18865.46
1983,19041.25
1984,19215.05
1985,19161.64
1986,18829.35
1987,18641.58
1988,18880.5
1989,19138.64
1990,19038.31
1991,18822.11
1992,18792.04
1993,18868.41
1994,18897.78
1995,18893.96
1996,18906.17
1997,18867.08
1998,18691.06
1999,18478.52
2000,18389.95
2001,18406.33
2002,18425.2
2003,18405.92
2004,18348.01
2005,18306.47
2006,18359.91
2007,18433.77
2008,18358.21
2009,18182.69
2010,18120.84
2011,18189.48
2012,18234.49
2013,18198.65
2014,18121.92
2015,18018.77
2016,17876.57
2017,17781.99
2018,17927.11
2019,18221.66
2020,18233.53
2021,17920.9
2022,17773.37
2023,17923.51
2024,17958.53
2025,17741.55
2026,17604.16
2027,17700.71
2028,17847.21
2029,17898.39
2030,17822.98
2031,17653.87
2032,17515.91
2033,17486.56
2034,17540.89
2035,17613.63
2036,17585.38
2037,17432.56
2038,17325.62
2039,17342.97
2040,17340.55
2041,17234.01
2042,17109.48
2043,17052.26
2044,17104.62
2045,17234.82
2046,17272.52
2047,17151.62
2048,17050.25
2049,17054
2050,17003.6
2051,16841.81
2052,16771.47
2053,16881.4
2054,16977.97
2055,16918.51
2056,16721.06
2057,16483.49
2058,16416.11
2059,16568.84
2060,16683.87
2061,16642.19
2062,16617.65
2063,16661.13
2064,16576.07
2065,16335.32
2066,16209.85
2067,16296.48
2068,16397.04
2069,16385.66
2070,16271.47
2071,16094.24
2072,15920.94
2073,15823.14
2074,15870.38
2075,15979.27
2076,15906.42
2077,15705.48
2078,15729
2079,15942.1
2080,15948.72
2081,15729.5
2082,15589.86
2083,15608.02
2084,15674.61
2085,15677.09
2086,15522.11
2087,15320.62
2088,15287.83
2089,15391.12
2090,15464.5
2091,15405.68
2092,15166.92
2093,14859.58
2094,14641.99
2095,14534.48
2096,14509.02
2097,14557.63
2098,14661.79
2099,14727.63
2100,14671.04
2101,14523.73
2102,14373.62
2103,14399.59
2104,14647.02
2105,14760.4
2106,14541.65
2107,14288.32
2108,14214.59
2109,14254.12
2110,14317.42
2111,14327.3
2112,14236.48
2113,14038.72
2114,13816.7
2115,13736.99
2116,13790.29
2117,13814.75
2118,13770.09
2119,13708.85
2120,13676.75
2121,13701.28
2122,13705.66
2123,13587.15
2124,13397.33
2125,13253.51
2126,13301.56
2127,13573.72
2128,13641.63
2129,13240.71
2130,12899.84
2131,12962.66
2132,13030.5
2133,12876.5
2134,12752.47
2135,12761.61
2136,12739.8
2137,12623.14
2138,12475.22
2139,12348.41
2140,12280.05
2141,12301.22
2142,12422.15
2143,12514.44
2144,12426.15
2145,12263.17
2146,12184.38
2147,12173.96
2148,12184.09
2149,12211.9
2150,12215.77
2151,12049.26
2152,11729.95
2153,11565.21
2154,11598.64
2155,11528.82
2156,11349.55
2157,11318.91
2158,11384.51
2159,11319.87
2160,11233.84
2161,11323.58
2162,11362.8
2163,11120.85
2164,10908.12
2165,10948.28
2166,10897.52
2167,10622.19
2168,10538.85
2169,10723.11
2170,10745.57
2171,10547.8
2172,10423.57
2173,10389.28
2174,10294.44
2175,10159.04
2176,10060.58
2177,9975.839
2178,9867.74
2179,9752.802
2180,9675.963
2181,9717.38
2182,9840.324
2183,9839.736
2184,9663.157
2185,9421.317
2186,9222.58
2187,9143.745
2188,9075.384
2189,8892.214
2190,8775.388
2191,8866.786
2192,8940.455
2193,8850.263
2194,8722.957
2195,8676.472
2196,8769.027
2197,8863.559
2198,8712.997
2199,8472.724
2200,8427.192
2201,8413.977
2202,8264.911
2203,8268.33
2204,8521.274
2205,8566.41
2206,8309.054
2207,8169.554
2208,8131.384
2209,7859.317
2210,7542.344
2211,7529.257
2212,7620.926
2213,7580.355
2214,7548.289
2215,7590.754
2216,7531.953
2217,7384.648
2218,7369.105
2219,7430.403
2220,7355.206
2221,7141.375
2222,6888.53
2223,6753.957
2224,6809.513
2225,6918.471
2226,6979.377
2227,6967.826
2228,6836.861
2229,6553.172
2230,6340.16
2231,6418.098
2232,6527.336
2233,6434.657
2234,6240.16
2235,6055.162
2236,5943.503
2237,5930.801
2238,5997.346
2239,5991.17
2240,5788.473
2241,5593.261
2242,5562.357
2243,5591.48
2244,5578.071
2245,5467.24
2246,5292.582
2247,5147.188
2248,5132.97
2249,5277.349
2250,5368.458
2251,5294.371
2252,5185.383
2253,5096.618
2254,4988.619
2255,4801.676
2256,4527.116
2257,4412.641
2258,4544.039
2259,4506.063
2260,4246.744
2261,4195.947
2262,4390.446
2263,4581.476
2264,4465.54
2265,4000.765
2266,3884.838
2267,4205.502
2268,4088.426
2269,3677.635
2270,3766.957
2271,4062.587
2272,4054.393
2273,3879.59
2274,3705.823
2275,3562.63
2276,3506.309
2277,3594.444
2278,3691.257
2279,3647.914
2280,3518.257
2281,3382.703
2282,3294.755
2283,3186.821
2284,2951.943
2285,2816.584
2286,2946.483
2287,2969.996
2288,2823.96
2289,2959.226
2290,3189.448
2291,3009.984
2292,2751.433
2293,2731.081
2294,2557.363
2295,2220.098
2296,2219.682
2297,2423.122
2298,2425.853
2299,2296.511
2300,2170.466
