400,77980.06
401,77812.72
402,78037.34
403,78511.52
404,79073.93
405,79570.88
406,79881.09
407,79893.14
408,79506.29
409,78772.62
410,77861.77
411,76945.18
412,76150.59
413,75521.84
414,75093.03
415,74896.48
416,74955.95
417,75292.32
418,75919.03
419,76720.64
420,77472.55
421,77948.2
422,77995.45
423,77617.21
424,76835.88
425,75728.43
426,74683.41
427,74197.78
428,74727.62
429,76010.95
430,77154.64
431,77251.55
432,75950.02
433,74080.09
434,72619.8
435,72357.97
436,73034.9
437,74024.37
438,74726.33
439,74958.92
440,74898.96
441,74733.61
442,74578.92
443,74407.32
444,74173.87
445,73856.44
446,73551.4
447,73393.29
448,73503.87
449,73815.31
450,74110.74
451,74171.92
452,73936.16
453,73622.9
454,73480.39
455,73668.09
456,73947.54
457,73968.95
458,73424.92
459,72518.27
460,71797.41
461,71806.51
462,72614.69
463,73564.88
464,73941.76
465,73296.02
466,72141.2
467,71207.89
468,71136.9
469,71751.78
470,72428.36
471,72554.95
472,71994.93
473,71189.38
474,70611.88
475,70566.34
476,70891.19
477,71346.06
478,71707.86
479,71863.32
480,71744.96
481,71293.23
482,70596.16
483,69876.59
484,69360.09
485,69122.11
486,68941.21
487,68561.9
488,67833.11
489,67081.7
490,66770.75
491,67303.74
492,68412.66
493,69396.6
494,69563.1
495,68753.64
496,67536.2
497,66527.98
498,66139.69
499,66173.14
500,66318.47
501,66307.19
502,66148.55
503,65969.13
504,65894.27
505,66029.47
506,66462.48
507,67278.08
508,68368.48
509,69270.9
510,69486.57
511,68700.6
512,67334.13
513,65991.95
514,65222.93
515,65076.29
516,65328.03
517,65755.12
518,66207.59
519,66616.33
520,66916.86
521,67075.61
522,67128.43
523,67120.47
524,67076.99
525,66926.73
526,66569.29
527,65923.05
528,65113.5
529,64396.72
530,64022.59
531,63995.9
532,64017.48
533,63771.22
534,63161.41
535,62638.32
536,62733.36
537,63784.71
538,65124.76
539,65759.61
540,64811.06
541,62730.61
542,60841.54
543,60445.47
544,61741.12
545,63541.89
546,64580.48
547,64167.21
548,63020.19
549,62065.75
550,62016.71
551,62529.14
552,62929.28
553,62625.7
554,61896.29
555,61553.45
556,62382.86
557,64244.44
558,65932.67
559,66193.08
560,64539.07
561,62144.99
562,60397.17
563,60299.57
564,61235.48
565,62156.43
566,62134.52
567,61265.62
568,60177.93
569,59481.05
570,59356.34
571,59576.38
572,59899.82
573,60199.58
574,60546.21
575,61029.59
576,61669.65
577,62257.66
578,62539.14
579,62319.36
580,61779.45
581,61247.87
582,61028.11
583,61103.12
584,61226.12
585,61152.31
586,60851.16
587,60562.99
588,60543.42
589,60844.39
590,61058.21
591,60715.9
592,59538.39
593,58040.26
594,56942.55
595,56864.02
596,57622.93
597,58651.93
598,59404.56
599,59690.21
600,59617.79
601,59304.94
602,58865.39
603,58407.51
604,58038.56
605,57813.96
606,57659.3
607,57480.36
608,57233.95
609,57107.97
610,57355.32
611,58169.32
612,59246.75
613,60035.8
614,60016.48
615,59212.48
616,58108.75
617,57197.5
618,56735.83
619,56649.91
620,56841.28
621,57200.49
622,57591.25
623,57873.95
624,57917.8
625,57626.14
626,56911.54
627,55745.4
628,54531.79
629,53866.84
630,54286.97
631,55514.13
632,56670.36
633,56891.16
634,56060.23
635,54949.98
636,54377.23
637,54731.9
638,55585
639,56416.53
640,56845.4
641,56929.46
642,56813.79
643,56621.93
644,56363.81
645,56010.97
646,55550.52
647,55115.68
648,54919.71
649,55159.65
650,55743.58
651,56329.22
652,56573.66
653,56388.36
654,56027.73
655,55768.46
656,55763.93
657,55907.24
658,56058.87
659,56091.44
660,55917.34
661,55457.79
662,54685.24
663,53856.15
664,53324.06
665,53390.06
666,53880.77
667,54365.96
668,54440.82
669,54134.57
670,53835.08
671,53928.18
672,54414.11
673,54814.01
674,54624.93
675,53716.9
676,52658.2
677,52091.04
678,52387.55
679,53147.47
680,53834.38
681,54009.59
682,53665.08
683,52913.53
684,51890.61
685,50898.7
686,50311
687,50458.29
688,51198.42
689,52086.7
690,52689.78
691,52863.18
692,52731.99
693,52430.66
694,52075.98
695,51761.13
696,51576.51
697,51531.11
698,51474.34
699,51237.89
700,50763.39
701,50309.19
702,50189.32
703,50610.61
704,51322.05
705,51950.42
706,52182.52
707,52083.58
708,51868.66
709,51735.97
710,51722.1
711,51771.5
712,51823.43
713,51746.49
714,51352.88
715,50466.86
716,49275.66
717,48370.82
718,48353.69
719,49309.92
720,50529.08
721,51238.09
722,51065.57
723,50503.13
724,50152.15
725,50392.48
726,50935.8
727,51368.69
728,51361.28
729,50938.15
730,50219.35
731,49344.05
732,48572.86
733,48211.44
734,48508.51
735,49218.57
736,49839.37
737,49907.69
738,49472.89
739,48944.63
740,48717.99
741,48771.23
742,48691.89
743,48067.44
744,46950.6
745,45971.48
746,45786.77
747,46588.67
748,47807.55
749,48806.89
750,49203
751,49160.77
752,48916.55
753,48632.65
754,48257.24
755,47699.96
756,46940.91
757,46235.54
758,45905.53
759,46180.48
760,46812.21
761,47397.4
762,47597.58
763,47521.28
764,47468.76
765,47704.84
766,48158.97
767,48574.28
768,48707.91
769,48515.34
770,48092.91
771,47542.54
772,47024.22
773,46749.96
774,46922.29
775,47442.6
776,47872.63
777,47765.94
778,47051.82
779,46189.82
780,45674.32
781,45724.68
782,46075.98
783,46415.59
784,46543.1
785,46504.59
786,46378.88
787,46236.95
788,46128.71
789,46100.27
790,46157.61
791,46167.52
792,45967.05
793,45464.55
794,44877.51
795,44506.91
796,44582.95
797,44955.89
798,45347.73
799,45519.46
800,45490.62
801,45388.43
802,45325.31
803,45289.46
804,45206.24
805,45005.21
806,44662.84
807,44184.16
808,43584.49
809,43015.82
810,42728.95
811,42954.11
812,43537.25
813,43995.13
814,43857.2
815,43148.33
816,42392.34
817,42121.35
818,42505.88
819,43290.64
820,44197.52
821,44970.52
822,45383.61
823,45218.29
824,44541.98
825,43878.18
826,43785.05
827,44417.94
828,45188.96
829,45434.34
830,44836.79
831,43817.08
832,42888.63
833,42390.45
834,42234.57
835,42268.82
836,42366.03
837,42468.72
838,42531.87
839,42523.43
840,42453.02
841,42338.71
842,42209.62
843,42136.29
844,42198.66
845,42420.89
846,42591.43
847,42437.22
848,41796.74
849,41040.02
850,40694.85
851,41154.81
852,42097.25
853,42959.97
854,43264.19
855,43026.57
856,42449.31
857,41736.34
858,41106.41
859,40783.86
860,40946.72
861,41428.78
862,41907.1
863,42091.9
864,41968.45
865,41659.35
866,41287.42
867,40972.68
868,40833.46
869,40967.2
870,41262.16
871,41484.29
872,41428.79
873,41228.75
874,41229.72
875,41734.33
876,42490
877,42871.04
878,42307.29
879,41037.96
880,39880.77
881,39607.72
882,40184.28
883,40965.81
884,41330.73
885,41220.96
886,41027.38
887,41124.61
888,41425.57
889,41457.98
890,40774.93
891,39572.66
892,38606.77
893,38608.13
894,39524.65
895,40597.33
896,41074.61
897,40816.14
898,40251.57
899,39817.54
900,39666.82
901,39679.96
902,39726.92
903,39676.18
904,39394.82
905,38762.69
906,37946.29
907,37398.79
908,37562
909,38352.59
910,39154.47
911,39349.43
912,38787.55
913,37798.55
914,36731.52
915,35905.16
916,35606.9
917,36103.19
918,37207.59
919,38267
920,38634.14
921,38265.4
922,37737.09
923,37632.44
924,38074.84
925,38719.27
926,39209.18
927,39380.83
928,39264.4
929,38900.98
930,38387.86
931,37877.93
932,37520.79
933,37355.17
934,37312.44
935,37321.16
936,37337.81
937,37345.14
938,37328.12
939,37293.71
940,37268.99
941,37281.6
942,37357.92
943,37523.22
944,37799.71
945,38158.29
946,38526.32
947,38830.46
948,39004.65
949,38988.82
950,38732.78
951,38330.91
952,37989.64
953,37901.7
954,38035.81
955,38195.9
956,38195.29
957,38010.65
958,37732.25
959,37449.63
960,37219.79
961,37078.44
962,37053.56
963,37094.46
964,37102.39
965,36995.89
966,36868.21
967,36912.05
968,37282.63
969,37793.34
970,38077.46
971,37835.88
972,37325.04
973,37071.04
974,37495.03
975,38243.71
976,38619.25
977,38052.34
978,36823
979,35555.73
980,34795.89
981,34622.55
982,34943.01
983,35638.2
984,36448.22
985,37067.16
986,37258.34
987,37110.77
988,36809.8
989,36519.32
990,36314.77
991,36248.11
992,36341.86
993,36509.11
994,36637.65
995,36645.04
996,36545.98
997,36375.1
998,36156.55
999,35884.45
1000,35547.56
1001,35162.85
1002,34818.7
1003,34614.21
1004,34606.52
1005,34760.05
1006,35026.86
1007,35351.16
1008,35640.27
1009,35791.13
1010,35741.35
1011,35590.98
1012,35480.46
1013,35502.91
1014,35588.42
1015,35632
1016,35567.28
1017,35442.25
1018,35325.85
1019,35263.51
1020,35240.99
1021,35234.73
1022,35223.58
1023,35191.43
1024,35123.14
1025,35029.24
1026,34967.63
1027,35000.14
1028,35124.21
1029,35236.61
1030,35227.71
1031,35075.94
1032,34876.02
1033,34727.03
1034,34633.48
1035,34494.67
1036,34212.25
1037,33841.39
1038,33579.97
1039,33615.35
1040,33901.64
1041,34213.08
1042,34341.84
1043,34333.22
1044,34393.31
1045,34697.73
1046,35136.12
1047,35450.27
1048,35421.57
1049,35106.07
1050,34674.04
1051,34284.45
1052,34036.11
1053,34007.88
1054,34237.36
1055,34592.55
1056,34898.07
1057,35035.44
1058,35067.17
1059,35091.5
1060,35140.75
1061,35084.51
1062,34769.26
1063,34204.14
1064,33710.6
1065,33638.66
1066,34000.05
1067,34301.08
1068,34024.83
1069,33182.79
1070,32400.68
1071,32305.44
1072,32907.16
1073,33660.27
1074,34034.56
1075,33939.55
1076,33589.11
1077,33191.31
1078,32851.27
1079,32619.91
1080,32544.64
1081,32653.76
1082,32968.13
1083,33456.74
1084,33851
1085,33814.81
1086,33197.05
1087,32455.06
1088,32169.6
1089,32640.12
1090,33498.13
1091,34280.59
1092,34689.58
1093,34712.62
1094,34368.34
1095,33773.65
1096,33170.08
1097,32797.68
1098,32711.93
1099,32797.1
1100,32934.68
1101,33049.67
1102,33096.38
1103,33038.82
1104,32914.11
1105,32794.44
1106,32740.38
1107,32749.24
1108,32797.22
1109,32858.64
1110,32900.98
1111,32890.23
1112,32802.12
1113,32636.35
1114,32396.86
1115,32134.45
1116,31979.97
1117,32067.55
1118,32389.2
1119,32767.86
1120,33024.29
1121,33103.61
1122,33053.78
1123,32925.58
1124,32767.02
1125,32624.57
1126,32540.26
1127,32529.22
1128,32596.34
1129,32726.97
1130,32829.13
1131,32791.97
1132,32569.55
1133,32281.56
1134,32072.66
1135,32014.12
1136,32053.91
1137,32128.66
1138,32185.26
1139,32182.06
1140,32083.09
1141,31923.63
1142,31792.01
1143,31767.54
1144,31846.46
1145,31984.62
1146,32123.43
1147,32134.51
1148,31868.2
1149,31289.56
1150,30710.04
1151,30503.8
1152,30808.99
1153,31317.95
1154,31680.26
1155,31762.13
1156,31691.21
1157,31605.36
1158,31561.5
1159,31553.93
1160,31574.44
1161,31607.45
1162,31633.78
1163,31636.19
1164,31606.44
1165,31538.94
1166,31447.01
1167,31396.38
1168,31460.94
1169,31653.41
1170,31883.76
1171,32054.19
1172,32118.3
1173,32083
1174,31958.97
1175,31771.54
1176,31555.45
1177,31344.83
1178,31169.63
1179,31058.13
1180,31024.5
1181,31033.76
1182,31040.4
1183,31019.72
1184,30988.63
1185,30968.61
1186,30968.77
1187,30983.48
1188,31005.91
1189,31025.18
1190,31027.44
1191,30998.16
1192,30918.17
1193,30766.44
1194,30544.05
1195,30332.92
1196,30233
1197,30282.96
1198,30396.99
1199,30475.92
1200,30472.35
1201,30399.45
1202,30276.46
1203,30154.99
1204,30108.62
1205,30193.74
1206,30359.23
1207,30513.29
1208,30582.22
1209,30550.75
1210,30415.86
1211,30221.59
1212,30094.01
1213,30160.69
1214,30396.71
1215,30627.56
1216,30691
1217,30598.83
1218,30458.07
1219,30361.65
1220,30332.68
1221,30374
1222,30474.03
1223,30586.81
1224,30661.87
1225,30667.58
1226,30596.61
1227,30446
1228,30249.3
1229,30065.71
1230,29946.93
1231,29896.37
1232,29899.51
1233,29942.91
1234,30016.43
1235,30110.22
1236,30197.8
1237,30227.14
1238,30148.22
1239,29978.69
1240,29791.39
1241,29654.35
1242,29590.87
1243,29605.34
1244,29690.61
1245,29801.83
1246,29886.68
1247,29916.22
1248,29899.96
1249,29851.16
1250,29785.6
1251,29721.21
1252,29676.06
1253,29668.61
1254,29717.49
1255,29818.68
1256,29893.77
1257,29850.45
1258,29688.38
1259,29553.95
1260,29595.37
1261,29775.87
1262,29909.05
1263,29840.14
1264,29648.02
1265,29504.57
1266,29522.31
1267,29639.48
1268,29763.28
1269,29838.22
1270,29861.04
1271,29834.27
1272,29784.68
1273,29755.88
1274,29776.43
1275,29793.82
1276,29729.25
1277,29568.76
1278,29450.25
1279,29527.72
1280,29791.37
1281,30048.63
1282,30116.49
1283,29989.03
1284,29755.18
1285,29509.22
1286,29361.98
1287,29426.94
1288,29705
1289,30005.22
1290,30127.83
1291,30037.21
1292,29829.94
1293,29603.59
1294,29438.29
1295,29407.74
1296,29538.1
1297,29736.44
1298,29893.04
1299,29949.31
1300,29904.76
1301,29770.4
1302,29631.3
1303,29611.27
1304,29767.84
1305,29923.19
1306,29850.66
1307,29520.04
1308,29199.85
1309,29160.67
1310,29374.34
1311,29606.69
1312,29670.59
1313,29621.69
1314,29586.64
1315,29630.05
1316,29696.13
1317,29718.84
1318,29696.07
1319,29680.44
1320,29715.62
1321,29781.31
1322,29833.74
1323,29849.44
1324,29852.57
1325,29873.32
1326,29923.35
1327,29995.71
1328,30079.62
1329,30143.45
1330,30146.6
1331,30075.23
1332,29987.13
1333,29950.46
1334,29988.07
1335,30072.37
1336,30172.6
1337,30254.71
1338,30283.03
1339,30243.19
1340,30182.26
1341,30157.13
1342,30185.21
1343,30237.7
1344,30285.58
1345,30320.02
1346,30341.93
1347,30349.25
1348,30330.91
1349,30275.26
1350,30202.48
1351,30169.77
1352,30222.37
1353,30294.41
1354,30267.48
1355,30092.81
1356,29916.77
1357,29913.68
1358,30092.59
1359,30281.79
1360,30325.93
1361,30254.34
1362,30176.42
1363,30164.28
1364,30195.72
1365,30235.69
1366,30287.14
1367,30389.99
1368,30570.19
1369,30759.47
1370,30854.54
1371,30818.79
1372,30757.4
1373,30785.86
1374,30887.2
1375,30935.8
1376,30842.24
1377,30709.45
1378,30697.4
1379,30856.04
1380,31047.49
1381,31126.9
1382,31088.05
1383,31015.12
1384,30975.49
1385,30968.66
1386,30978.32
1387,30978.96
1388,30932.95
1389,30813.11
1390,30684.03
1391,30655.08
1392,30770.31
1393,30901.81
1394,30900.38
1395,30759.15
1396,30606.42
1397,30550.96
1398,30564.95
1399,30574.7
1400,30539.12
1401,30475.7
1402,30407.72
1403,30354.4
1404,30332.34
1405,30351.21
1406,30396.93
1407,30450.21
1408,30490.94
1409,30498.07
1410,30456.82
1411,30395.62
1412,30360.91
1413,30384.64
1414,30467.84
1415,30605.46
1416,30762.48
1417,30881.52
1418,30923.95
1419,30926.28
1420,30942.38
1421,30992.76
1422,31055.6
1423,31104.12
1424,31095.9
1425,30981.97
1426,30766.84
1427,30569.23
1428,30513.99
1429,30603.39
1430,30750.64
1431,30877.96
1432,30948.43
1433,30936.03
1434,30867.06
1435,30828.66
1436,30891.87
1437,31004.97
1438,31069.58
1439,31033.17
1440,30927.8
1441,30796.15
1442,30696.64
1443,30697.27
1444,30821.68
1445,30964.56
1446,31003.1
1447,30934.68
1448,30867.37
1449,30887.64
1450,30963.6
1451,31030.31
1452,31055.41
1453,31050.66
1454,31029.37
1455,30993.11
1456,30938.53
1457,30878
1458,30854.84
1459,30910.59
1460,31025.09
1461,31139.76
1462,31211.25
1463,31241.58
1464,31241.19
1465,31228.7
1466,31229.84
1467,31262.57
1468,31312.05
1469,31355.38
1470,31378.7
1471,31378.72
1472,31356.52
1473,31334.35
1474,31341.55
1475,31379.28
1476,31404.93
1477,31381.42
1478,31345.34
1479,31367.72
1480,31471.99
1481,31584.83
1482,31628.88
1483,31610.62
1484,31587.29
1485,31595.56
1486,31616.64
1487,31623.79
1488,31604.3
1489,31556.03
1490,31485.25
1491,31424.77
1492,31410.45
1493,31430.07
1494,31427.21
1495,31366.61
1496,31304.71
1497,31318.1
1498,31401.45
1499,31460.23
1500,31419.55
1501,31321.6
1502,31242.97
1503,31225.36
1504,31266.45
1505,31355.8
1506,31453.21
1507,31508.51
1508,31501.03
1509,31452.15
1510,31388.57
1511,31349.64
1512,31379.18
1513,31478.69
1514,31583.08
1515,31633.39
1516,31657.24
1517,31719.06
1518,31826.03
1519,31887.81
1520,31824.2
1521,31707.19
1522,31678.46
1523,31791.76
1524,31942.72
1525,32021.41
1526,32008.66
1527,31929.12
1528,31826.72
1529,31780.06
1530,31856.78
1531,32002.01
1532,32101.43
1533,32103.19
1534,32071.64
1535,32075.83
1536,32119.86
1537,32176.41
1538,32220.45
1539,32231.62
1540,32193.48
1541,32116.93
1542,32025.79
1543,31951.49
1544,31938.36
1545,32018.78
1546,32128.87
1547,32163.45
1548,32097.82
1549,32036.62
1550,32075.76
1551,32175.14
1552,32240.77
1553,32231.48
1554,32183.4
1555,32137.79
1556,32129.38
1557,32189.39
1558,32299.49
1559,32377.08
1560,32361.3
1561,32322.13
1562,32366.5
1563,32489.89
1564,32562.21
1565,32492.01
1566,32378.9
1567,32367.68
1568,32495.61
1569,32697.32
1570,32903.7
1571,33047.81
1572,33069.06
1573,33001.91
1574,32956.14
1575,32999.99
1576,33082.09
1577,33136.78
1578,33168.83
1579,33227.83
1580,33334.57
1581,33446.31
1582,33517.12
1583,33544.43
1584,33547.34
1585,33544.3
1586,33552.33
1587,33584.64
1588,33631.42
1589,33673.98
1590,33690.43
1591,33654.82
1592,33562
1593,33499.54
1594,33574.54
1595,33763.82
1596,33921.99
1597,33955.13
1598,33944.84
1599,33998.06
1600,34109.29
1601,34196.74
1602,34221.52
1603,34241.08
1604,34317.2
1605,34444.31
1606,34585.04
1607,34723.73
1608,34877.53
1609,35059.51
1610,35247.48
1611,35409.15
1612,35541.38
1613,35670.91
1614,35818.08
1615,35977.21
1616,36134.04
1617,36233
1618,36190.58
1619,35984.3
1620,35720.67
1621,35508.17
1622,35349.18
1623,35199.76
1624,35034.8
1625,34854.72
1626,34660.86
1627,34451.05
1628,34224.09
1629,34011.98
1630,33874.62
1631,33837.45
1632,33836.8
1633,33804.09
1634,33750.23
1635,33726.13
1636,33734.05
1637,33702.84
1638,33584.87
1639,33473.12
1640,33494.51
1641,33627.41
1642,33717.96
1643,33671.53
1644,33560.08
1645,33474.54
1646,33437.27
1647,33435.46
1648,33450.57
1649,33456.25
1650,33433.82
1651,33401.35
1652,33386.61
1653,33408.85
1654,33480.36
1655,33591.34
1656,33682.29
1657,33696.56
1658,33648.89
1659,33584.6
1660,33525.63
1661,33465.31
1662,33408.42
1663,33405.27
1664,33506.81
1665,33656.37
1666,33729.27
1667,33686.76
1668,33639.97
1669,33683.25
1670,33749.25
1671,33726.15
1672,33628.26
1673,33580.13
1674,33652.31
1675,33779.4
1676,33881.8
1677,33918.61
1678,33867.52
1679,33767.73
1680,33728.11
1681,33809.08
1682,33910.75
1683,33918.1
1684,33862.33
1685,33852.22
1686,33910.24
1687,33937.38
1688,33868.99
1689,33805.52
1690,33873.7
1691,34047.65
1692,34203.23
1693,34264.39
1694,34236.46
1695,34142.07
1696,34046.82
1697,34022.34
1698,34054.87
1699,34068.76
1700,34029.72
1701,33981.09
1702,33966.21
1703,33987.95
1704,34036.9
1705,34103.63
1706,34178.54
1707,34237.76
1708,34230.53
1709,34125.2
1710,34002.99
1711,33974.37
1712,34046.64
1713,34145.72
1714,34227.42
1715,34308.89
1716,34401.31
1717,34452.92
1718,34399.37
1719,34279.67
1720,34210.86
1721,34238.03
1722,34273.73
1723,34244
1724,34199.44
1725,34219.7
1726,34301.38
1727,34383.7
1728,34433.73
1729,34465.23
1730,34489.68
1731,34493
1732,34457.52
1733,34394.39
1734,34332.05
1735,34294.61
1736,34299.86
1737,34358.79
1738,34461.75
1739,34590.08
1740,34685.83
1741,34674.67
1742,34567.84
1743,34471
1744,34459.86
1745,34522.78
1746,34630.04
1747,34723.59
1748,34739.34
1749,34695.98
1750,34681.99
1751,34738.55
1752,34815.11
1753,34857.11
1754,34836.08
1755,34736.91
1756,34614.13
1757,34563.73
1758,34619.31
1759,34731.41
1760,34840.97
1761,34878.21
1762,34790.53
1763,34657.59
1764,34608.74
1765,34661.6
1766,34733.91
1767,34773.48
1768,34791.64
1769,34804.91
1770,34822.15
1771,34847.57
1772,34858.43
1773,34817.66
1774,34726.32
1775,34630.8
1776,34577.87
1777,34608.25
1778,34740.68
1779,34877.91
1780,34894.68
1781,34824.6
1782,34812.57
1783,34895.03
1784,34949.8
1785,34899.11
1786,34832.91
1787,34852.96
1788,34935.76
1789,35009.78
1790,35035.94
1791,35001.84
1792,34928.86
1793,34890.36
1794,34938.84
1795,35044.48
1796,35156.86
1797,35197.82
1798,35087.07
1799,34906.05
1800,34867.7
1801,35033.55
1802,35219.06
1803,35276.49
1804,35243.54
1805,35189.43
1806,35150.78
1807,35149.43
1808,35178.54
1809,35209.32
1810,35222.48
1811,35213.41
1812,35192.69
1813,35209.79
1814,35301
1815,35390.43
1816,35374.03
1817,35280.78
1818,35225.67
1819,35249.96
1820,35303.86
1821,35342.13
1822,35342.2
1823,35293
1824,35220.26
1825,35157.8
1826,35122.59
1827,35122.41
1828,35153.11
1829,35199.75
1830,35257.32
1831,35337.87
1832,35431.08
1833,35454.63
1834,35342
1835,35196.54
1836,35167.29
1837,35227
1838,35238.73
1839,35169.49
1840,35104.4
1841,35105.68
1842,35178.63
1843,35305.75
1844,35412.72
1845,35421.64
1846,35314.52
1847,35106.63
1848,34932.64
1849,35002.37
1850,35276.02
1851,35420.7
1852,35302.86
1853,35218.51
1854,35384.11
1855,35561.98
1856,35480.92
1857,35277.89
1858,35224.04
1859,35319.52
1860,35392.13
1861,35375.78
1862,35320.77
1863,35272.99
1864,35260.39
1865,35284.23
1866,35272.63
1867,35166.87
1868,35043.1
1869,35006.34
1870,35038.11
1871,35059.54
1872,35068.8
1873,35127.8
1874,35220.16
1875,35222.76
1876,35109.08
1877,35074.98
1878,35249.27
1879,35424.66
1880,35375.16
1881,35197.72
1882,35089.51
1883,35078.64
1884,35097.46
1885,35110.73
1886,35113.2
1887,35100.86
1888,35070.13
1889,35036.3
1890,35054.4
1891,35152.85
1892,35254.66
1893,35279.26
1894,35244.68
1895,35196.62
1896,35137.27
1897,35050.18
1898,34974.87
1899,34990.89
1900,35085.14
1901,35138.47
1902,35103.2
1903,35062.24
1904,35082.95
1905,35161.39
1906,35265.33
1907,35296.67
1908,35174.16
1909,35010.48
1910,34967.86
1911,35009.72
1912,35000.67
1913,34936.73
1914,34914.16
1915,34949.05
1916,34966.4
1917,34930.77
1918,34876.49
1919,34833.27
1920,34806.46
1921,34806.3
1922,34869.54
1923,35007.11
1924,35082.07
1925,34953.78
1926,34763.52
1927,34744.96
1928,34840.82
1929,34835.7
1930,34767.64
1931,34873.91
1932,35110.61
1933,35119.14
1934,34824.77
1935,34605.62
1936,34663.29
1937,34758.39
1938,34709.64
1939,34652.94
1940,34713.94
1941,34761.81
1942,34647.64
1943,34461.97
1944,34360.76
1945,34387.73
1946,34522.21
1947,34599.7
1948,34394
1949,34057.75
1950,34022.36
1951,34270.89
1952,34333.17
1953,34106.45
1954,33991.91
1955,34165.02
1956,34364.99
1957,34396
1958,34294.04
1959,34127.74
1960,33972.37
1961,33886.68
1962,33864.61
1963,33893.41
1964,33997.41
1965,34186.16
1966,34314.14
1967,34208.45
1968,33939.25
1969,33686.69
1970,33579.84
1971,33698.68
1972,33865.17
1973,33738.59
1974,33408.18
1975,33329.52
1976,33563.27
1977,33741.46
1978,33708.73
1979,33608.43
1980,33518.99
1981,33389.33
1982,33254.23
1983,33326.14
1984,33629.42
1985,33731.44
1986,33388.04
1987,33014.43
1988,32972.6
1989,33116.97
1990,33233.72
1991,33227.1
1992,33069.89
1993,32916.84
1994,32921.79
1995,32968.74
1996,32891.48
1997,32755.95
1998,32697.58
1999,32719.06
2000,32766.64
2001,32800.46
2002,32791.08
2003,32743.54
2004,32680.71
2005,32607.2
2006,32516.36
2007,32407.01
2008,32285.73
2009,32216.68
2010,32299.69
2011,32457.87
2012,32467.78
2013,32285.46
2014,32043.72
2015,31881.69
2016,31931.51
2017,32143.88
2018,32269.33
2019,32222.33
2020,32129.35
2021,32053.65
2022,31959.21
2023,31832.59
2024,31701.1
2025,31583.79
2026,31483.01
2027,31415.34
2028,31420.84
2029,31475
2030,31444.48
2031,31300.21
2032,31209.91
2033,31231.45
2034,31191.1
2035,31034.18
2036,30971.33
2037,31086.46
2038,31166.16
2039,31073.43
2040,30886.97
2041,30707.22
2042,30627.16
2043,30645.49
2044,30573.67
2045,30339.42
2046,30150.73
2047,30143.89
2048,30241.04
2049,30332.17
2050,30295.74
2051,30114.74
2052,29981.97
2053,29975.79
2054,29903.59
2055,29690.67
2056,29546.04
2057,29552.73
2058,29502.25
2059,29321.33
2060,29234.07
2061,29322.25
2062,29370.63
2063,29268.37
2064,29124.81
2065,29030.45
2066,29012.87
2067,29043.13
2068,29018.59
2069,28927.28
2070,28889.21
2071,28923.69
2072,28907.56
2073,28781.15
2074,28575.8
2075,28381.51
2076,28341.98
2077,28447.47
2078,28529.31
2079,28491.06
2080,28317.04
2081,28081.06
2082,27920.97
2083,27806.82
2084,27592.79
2085,27370.65
2086,27374.67
2087,27516.18
2088,27521.46
2089,27332.06
2090,27024.44
2091,26772.75
2092,26753.42
2093,26813.34
2094,26713.38
2095,26569.37
2096,26569.08
2097,26572.93
2098,26394.41
2099,26113.08
2100,25868.65
2101,25749.15
2102,25783.79
2103,25853.93
2104,25854.19
2105,25792.1
2106,25682.75
2107,25517.02
2108,25304.69
2109,25096.86
2110,24953.5
2111,24938.54
2112,25018.3
2113,25034.55
2114,24904.35
2115,24640.35
2116,24350.13
2117,24210.46
2118,24235.58
2119,24313.55
2120,24285.61
2121,24012.35
2122,23725.58
2123,23747.99
2124,23843.07
2125,23673.42
2126,23463.87
2127,23465.8
2128,23386.93
2129,23028.54
2130,22836.74
2131,23024.4
2132,23017.29
2133,22593.08
2134,22330.3
2135,22403.01
2136,22332.15
2137,22020.72
2138,21816.13
2139,21800.21
2140,21819.54
2141,21765.31
2142,21578.88
2143,21340.92
2144,21170.69
2145,21017.58
2146,20808.93
2147,20641.84
2148,20604.24
2149,20615.37
2150,20601.86
2151,20580.34
2152,20513.09
2153,20258.26
2154,19911.88
2155,19852.55
2156,19997.86
2157,19872.75
2158,19558.86
2159,19461.27
2160,19492.59
2161,19375.8
2162,19127.67
2163,18864.68
2164,18695.37
2165,18637.19
2166,18473.48
2167,18115.71
2168,17780.61
2169,17607.62
2170,17590.33
2171,17689.09
2172,17833.56
2173,17848.99
2174,17544.62
2175,17112.59
2176,16855.58
2177,16771.59
2178,16770.56
2179,16777.02
2180,16717.81
2181,16520.88
2182,16205.52
2183,15922
2184,15806.74
2185,15945.88
2186,16102.9
2187,15910.83
2188,15619.96
2189,15606.25
2190,15556.45
2191,15197.47
2192,14943.72
2193,14988.35
2194,14889.46
2195,14535.86
2196,14287.95
2197,14187.96
2198,14024.41
2199,13827.66
2200,13731.11
2201,13719.68
2202,13725
2203,13666.25
2204,13508.9
2205,13314.91
2206,13113.31
2207,12884.11
2208,12722.41
2209,12780.55
2210,12883.03
2211,12764.53
2212,12542.49
2213,12374.86
2214,12196.48
2215,11985.61
2216,11861.15
2217,11806.81
2218,11667.33
2219,11560.2
2220,11706.89
2221,11789.57
2222,11460.92
2223,11063.76
2224,10894
2225,10809.75
2226,10639.27
2227,10269.89
2228,9971.392
2229,10192.83
2230,10563.41
2231,10540.1
2232,10386.51
2233,10346.98
2234,10167.78
2235,9780.8
2236,9439.001
2237,9244.396
2238,9163.212
2239,9137.268
2240,9112.823
2241,9088.506
2242,9025.435
2243,8787.712
2244,8449.521
2245,8321.412
2246,8396.314
2247,8455.327
2248,8351.292
2249,8060.716
2250,7855.445
2251,7870.729
2252,7916.612
2253,7814.136
2254,7467.467
2255,7161.703
2256,7220.009
2257,7283.995
2258,7076.406
2259,6902.801
2260,6872.093
2261,6777.823
2262,6573.541
2263,6333.625
2264,6155.485
2265,6134.679
2266,6336.54
2267,6574.914
2268,6361.994
2269,5856.713
2270,5618.683
2271,5550.619
2272,5403.165
2273,5253.374
2274,5206.673
2275,5310.309
2276,5493.77
2277,5601.233
2278,5510.031
2279,5198.117
2280,4906.862
2281,4770.043
2282,4687.015
2283,4650.41
2284,4714.657
2285,4770.162
2286,4722.716
2287,4702.637
2288,4703.725
2289,4498.698
2290,4181.905
2291,4027.962
2292,4005.256
2293,3954.096
2294,3667.851
2295,3275.82
2296,3257.811
2297,3559.484
2298,3817.384
2299,3720.76
2300,3273.085
