400,59021.93
401,58899.29
402,58912.41
403,59010.8
404,59137.32
405,59238.48
406,59277
407,59220.36
408,59039.74
409,58759.15
410,58443.3
411,58157.44
412,57945.8
413,57812.29
414,57756.17
415,57773.18
416,57840.3
417,57928.38
418,58009.43
419,58073.27
420,58124.95
421,58169.82
422,58198.39
423,58169.97
424,58040.06
425,57785.7
426,57505.47
427,57340.39
428,57421.03
429,57694.61
430,57947.24
431,57961.28
432,57647.13
433,57187.5
434,56799.21
435,56659.01
436,56721.63
437,56864.16
438,56968.44
439,56990.98
440,56952.36
441,56875.11
442,56775.32
443,56656.06
444,56518.85
445,56367.59
446,56218.93
447,56093.59
448,56010.57
449,55963.64
450,55926.78
451,55873.7
452,55795.79
453,55716.48
454,55662.48
455,55645.63
456,55610.91
457,55484.68
458,55204.29
459,54840.82
460,54555.88
461,54509.52
462,54718.03
463,54977.83
464,55067.74
465,54845.94
466,54457.71
467,54113.13
468,53996.61
469,54059.57
470,54125.71
471,54022.57
472,53724.08
473,53382.16
474,53158.65
475,53147.46
476,53256.22
477,53361
478,53354.22
479,53234.99
480,53046.53
481,52831.48
482,52622.88
483,52444.99
484,52321.39
485,52247.77
486,52164.5
487,52005.73
488,51732.8
489,51431.62
490,51223.62
491,51217.13
492,51374.06
493,51561.88
494,51648.85
495,51578.59
496,51397.14
497,51157.67
498,50907.79
499,50679.2
500,50500.45
501,50394.17
502,50342.39
503,50310.05
504,50264.39
505,50214.37
506,50206.05
507,50286.05
508,50445.46
509,50573.16
510,50547.5
511,50291.11
512,49903.66
513,49528.93
514,49296.38
515,49206.37
516,49188.77
517,49174.48
518,49134.48
519,49084
520,49040.48
521,49012.18
522,48986.66
523,48948.75
524,48883.58
525,48777.58
526,48617.61
527,48393.99
528,48135.46
529,47894.99
530,47724.21
531,47624.44
532,47534.55
533,47389.94
534,47171.64
535,46973.73
536,46907.05
537,47042.23
538,47240.37
539,47294.65
540,47022.85
541,46526.25
542,46091.93
543,46001.9
544,46286.62
545,46660.63
546,46820.12
547,46602.96
548,46192.38
549,45822.62
550,45677.92
551,45695.38
552,45734.9
553,45670.63
554,45526.33
555,45417.74
556,45457.27
557,45631.94
558,45784.49
559,45751
560,45469.82
561,45100.48
562,44830.74
563,44793.66
564,44890.27
565,44959.83
566,44861.26
567,44620.91
568,44352.15
569,44164.87
570,44090.75
571,44086.79
572,44107.41
573,44120.71
574,44118.49
575,44094.96
576,44044.34
577,43960.92
578,43838.96
579,43675.84
580,43488.48
581,43301.46
582,43138.35
583,43010.77
584,42921.75
585,42873.91
586,42861.6
587,42868.7
588,42878.5
589,42868.17
590,42800.93
591,42638.26
592,42365.04
593,42064.3
594,41844.52
595,41797.6
596,41885.55
597,42007.76
598,42067.2
599,42026.57
600,41898.88
601,41699.02
602,41461.27
603,41247.86
604,41122.83
605,41108.99
606,41125.83
607,41077.24
608,40899.37
609,40674.11
610,40524.47
611,40553.96
612,40705.37
613,40840.89
614,40829.91
615,40667.3
616,40454.39
617,40293.98
618,40223.96
619,40190.86
620,40134.6
621,40019.48
622,39867.48
623,39708.89
624,39565.88
625,39427.45
626,39274.08
627,39093.53
628,38927.03
629,38839.53
630,38888.47
631,39027.82
632,39135.39
633,39091.16
634,38883.93
635,38631.72
636,38458.95
637,38423.01
638,38452.74
639,38462.69
640,38395.27
641,38281.19
642,38168.61
643,38095.8
644,38048.41
645,37994.4
646,37906.19
647,37796.7
648,37701.17
649,37652.71
650,37645.6
651,37640.42
652,37597.43
653,37501.55
654,37370.93
655,37226.01
656,37090
657,36992.11
658,36962.18
659,37006.85
660,37053.75
661,37014.06
662,36823.97
663,36557.29
664,36335.03
665,36262.36
666,36301.36
667,36336.67
668,36259.66
669,36078.21
670,35896.46
671,35818.44
672,35859.55
673,35925.15
674,35914.71
675,35787.32
676,35613.61
677,35476.1
678,35425.28
679,35420.04
680,35403.11
681,35329.39
682,35207.7
683,35061.93
684,34914.81
685,34781.71
686,34674.82
687,34604.25
688,34557.5
689,34507.58
690,34428.67
691,34321.69
692,34212.45
693,34127.2
694,34075.81
695,34046.03
696,34024.12
697,33995.63
698,33944.7
699,33855.39
700,33725.48
701,33592.32
702,33500.19
703,33478.88
704,33496.44
705,33504.39
706,33461.63
707,33373.4
708,33263.33
709,33154.15
710,33060.55
711,32992.6
712,32958.64
713,32940.94
714,32900.91
715,32801.12
716,32648.1
717,32497.35
718,32405.98
719,32388.36
720,32392.9
721,32362.76
722,32267.69
723,32134.47
724,31997.25
725,31885.04
726,31811.88
727,31788.85
728,31816.03
729,31845.88
730,31818.24
731,31687.76
732,31498.79
733,31329.51
734,31248.87
735,31246.53
736,31270.9
737,31272.49
738,31231.23
739,31147.76
740,31023.82
741,30875.49
742,30732.32
743,30623.65
744,30559.4
745,30525.4
746,30506.1
747,30491.13
748,30478.66
749,30467.61
750,30455.07
751,30434.05
752,30397.07
753,30335.74
754,30238.89
755,30094.93
756,29905.73
757,29725.92
758,29622.81
759,29644.29
760,29737.46
761,29816.72
762,29808.09
763,29717.35
764,29584.52
765,29447.57
766,29325.1
767,29224.93
768,29153.78
769,29105.8
770,29066.24
771,29020.64
772,28963.36
773,28896.65
774,28823.08
775,28746.99
776,28674.7
777,28612.47
778,28560.61
779,28511.02
780,28455.08
781,28391.24
782,28330.45
783,28284.83
784,28255.49
785,28219.31
786,28150.02
787,28038.19
788,27920.88
789,27842.99
790,27830.74
791,27845.87
792,27836.22
793,27764.69
794,27659.14
795,27565.04
796,27517.21
797,27493.21
798,27451.27
799,27358.56
800,27242.07
801,27153.6
802,27136.75
803,27166.26
804,27182.1
805,27129.81
806,27015.04
807,26880
808,26765.26
809,26684.43
810,26631.6
811,26600.22
812,26580.18
813,26558.33
814,26521.9
815,26469.07
816,26408.94
817,26350.91
818,26298.09
819,26246.25
820,26190.81
821,26130.15
822,26066.69
823,26003.13
824,25941.55
825,25883.13
826,25828.88
827,25778.81
828,25730.99
829,25683.3
830,25633.42
831,25578.67
832,25516.29
833,25444.98
834,25366.86
835,25284.57
836,25200.85
837,25118.71
838,25041.2
839,24973.11
840,24925.1
841,24908.96
842,24928.03
843,24954.43
844,24953.11
845,24898
846,24800.67
847,24682.61
848,24564.99
849,24467.97
850,24411.29
851,24407.31
852,24428.52
853,24434.08
854,24391.36
855,24316.41
856,24243.49
857,24201.17
858,24179.89
859,24154.34
860,24102.92
861,24032.09
862,23961.07
863,23906.7
864,23865.87
865,23825.5
866,23774.42
867,23719.54
868,23677.57
869,23662.52
870,23660.56
871,23641.58
872,23578.98
873,23486.78
874,23404.54
875,23367.91
876,23361.15
877,23333.92
878,23240.69
879,23106.03
880,23004.67
881,23005.99
882,23088.92
883,23164.06
884,23146.57
885,23045.48
886,22944.52
887,22924.05
888,22977.02
889,23023.39
890,22985.79
891,22869.67
892,22752.49
893,22710.03
894,22744.73
895,22792.83
896,22790.87
897,22724.88
898,22627.12
899,22530.84
900,22455.9
901,22409.29
902,22396.51
903,22402.32
904,22391.1
905,22328.44
906,22225.28
907,22137.91
908,22121.79
909,22171.03
910,22217.49
911,22192.86
912,22085.08
913,21939.74
914,21804.04
915,21705.23
916,21649.97
917,21643.07
918,21667.54
919,21683.86
920,21653.13
921,21571.69
922,21472.1
923,21387.49
924,21327.35
925,21277.14
926,21221.94
927,21161.87
928,21112.16
929,21087.85
930,21084.8
931,21079.99
932,21050.53
933,20992.5
934,20920.37
935,20849.01
936,20787.95
937,20741.67
938,20714.04
939,20701.1
940,20691.77
941,20675.2
942,20648.94
943,20618.03
944,20587.62
945,20560.65
946,20538.21
947,20521.1
948,20506.07
949,20486.59
950,20456.71
951,20419.75
952,20386.26
953,20365.8
954,20352.23
955,20327.83
956,20276.34
957,20203.24
958,20129.15
959,20073.85
960,20044.82
961,20041.42
962,20061.9
963,20093.67
964,20117.5
965,20115.86
966,20087.94
967,20042.46
968,19987.93
969,19929.67
970,19871.4
971,19817.08
972,19773.36
973,19748.1
974,19746.91
975,19758.59
976,19764.46
977,19747.4
978,19700.41
979,19620.58
980,19510.34
981,19403.68
982,19346.13
983,19368.84
984,19427.01
985,19450.74
986,19389.49
987,19283.81
988,19201.18
989,19190.97
990,19226.66
991,19261.77
992,19261.86
993,19236.88
994,19207.13
995,19186.19
996,19165.7
997,19132.81
998,19078.21
999,19002.74
1000,18909.07
1001,18805.98
1002,18717.77
1003,18671
1004,18675.64
1005,18704.87
1006,18727
1007,18716.64
1008,18677.12
1009,18620.02
1010,18558.4
1011,18511.53
1012,18500.15
1013,18533.63
1014,18582.08
1015,18607.19
1016,18584.98
1017,18533.89
1018,18480.17
1019,18441.42
1020,18413.45
1021,18388.65
1022,18360.93
1023,18327.43
1024,18285.8
1025,18242.57
1026,18220.62
1027,18244.05
1028,18308.07
1029,18362.65
1030,18355.06
1031,18278.1
1032,18184.71
1033,18130.23
1034,18124.57
1035,18127.17
1036,18096.97
1037,18034.99
1038,17981.3
1039,17974.46
1040,18009.39
1041,18047.32
1042,18052.3
1043,18029.33
1044,18009.48
1045,18020.14
1046,18053.65
1047,18084.24
1048,18089.02
1049,18065.67
1050,18020.46
1051,17961.55
1052,17907.29
1053,17879.34
1054,17891.32
1055,17923.8
1056,17948.92
1057,17947.66
1058,17929.33
1059,17908.83
1060,17893.74
1061,17873.66
1062,17835.57
1063,17777.51
1064,17718.76
1065,17680.71
1066,17669.87
1067,17670.49
1068,17665.58
1069,17654.28
1070,17654.43
1071,17683.79
1072,17738.74
1073,17796.32
1074,17834.7
1075,17854.35
1076,17871.19
1077,17900.84
1078,17953.98
1079,18038.62
1080,18159.51
1081,18300.73
1082,18438.27
1083,18548.79
1084,18611.91
1085,18608.1
1086,18534.69
1087,18444.39
1088,18401.13
1089,18435.86
1090,18501.22
1091,18538.86
1092,18518.33
1093,18457.41
1094,18378.48
1095,18295.94
1096,18214.2
1097,18136.74
1098,18061.57
1099,17981.72
1100,17890.98
1101,17795.64
1102,17710.34
1103,17648.28
1104,17609.76
1105,17588.91
1106,17580.1
1107,17578.99
1108,17581.72
1109,17585.3
1110,17589.89
1111,17596.4
1112,17605.23
1113,17615.51
1114,17626.24
1115,17636.82
1116,17647.5
1117,17658.43
1118,17665.51
1119,17659.59
1120,17631.69
1121,17580.66
1122,17511.83
1123,17431.23
1124,17350.17
1125,17282.94
1126,17240.12
1127,17209.27
1128,17169.19
1129,17104
1130,17018.86
1131,16924.13
1132,16829.91
1133,16745.74
1134,16680.94
1135,16639.66
1136,16617.29
1137,16608.26
1138,16602.5
1139,16584.99
1140,16541.83
1141,16478.75
1142,16416.16
1143,16373.52
1144,16360.39
1145,16381.43
1146,16434.16
1147,16480.9
1148,16473.25
1149,16389.06
1150,16285.37
1151,16233.71
1152,16262.78
1153,16320.41
1154,16346.52
1155,16316.33
1156,16247.63
1157,16160.69
1158,16074.85
1159,16008.77
1160,15977.36
1161,15965.73
1162,15944.42
1163,15892.71
1164,15831.15
1165,15792.42
1166,15794.86
1167,15817.01
1168,15830.78
1169,15822.86
1170,15804.72
1171,15789.72
1172,15779.46
1173,15763.3
1174,15731.45
1175,15690.56
1176,15657.74
1177,15646.67
1178,15648.89
1179,15647.47
1180,15630.56
1181,15603.91
1182,15577.09
1183,15555.95
1184,15538.81
1185,15523.17
1186,15507.95
1187,15493.71
1188,15481.18
1189,15471.24
1190,15464.92
1191,15461.85
1192,15452.06
1193,15421.66
1194,15366.2
1195,15315.88
1196,15308.6
1197,15354.28
1198,15406.01
1199,15411.41
1200,15360.65
1201,15293.72
1202,15251.04
1203,15243.39
1204,15261.54
1205,15295.01
1206,15328.13
1207,15343.28
1208,15327.36
1209,15281.8
1210,15211.11
1211,15132.3
1212,15084.16
1213,15105.51
1214,15186.24
1215,15268.22
1216,15297.22
1217,15274.55
1218,15231.91
1219,15198.55
1220,15190.91
1221,15221.69
1222,15288.89
1223,15355.44
1224,15379.99
1225,15353.33
1226,15307.6
1227,15275.54
1228,15261.83
1229,15251.37
1230,15232.14
1231,15212.88
1232,15210.01
1233,15232.82
1234,15269.39
1235,15303.94
1236,15323.2
1237,15317.75
1238,15279.89
1239,15225.43
1240,15189.28
1241,15199.66
1242,15234.44
1243,15250.19
1244,15220.15
1245,15172.95
1246,15148.26
1247,15161.49
1248,15188.09
1249,15200.8
1250,15190.03
1251,15161.32
1252,15122.11
1253,15089.9
1254,15086.55
1255,15122.31
1256,15169.21
1257,15191.81
1258,15180.15
1259,15164.99
1260,15178.52
1261,15216.62
1262,15245.81
1263,15237.51
1264,15200.38
1265,15157.92
1266,15128.84
1267,15117.74
1268,15126.5
1269,15149.62
1270,15171.22
1271,15176.14
1272,15168.17
1273,15164.28
1274,15176.08
1275,15185.56
1276,15165.1
1277,15106.73
1278,15048.53
1279,15033.92
1280,15069.18
1281,15119.17
1282,15149.83
1283,15157.13
1284,15153.12
1285,15148.98
1286,15151.92
1287,15168.13
1288,15196.94
1289,15225.96
1290,15242.21
1291,15241.6
1292,15227.18
1293,15203.07
1294,15178.54
1295,15164.73
1296,15168.25
1297,15184.38
1298,15206.47
1299,15223.13
1300,15217.58
1301,15177.16
1302,15128.74
1303,15119.8
1304,15176.22
1305,15246.75
1306,15263.93
1307,15211.43
1308,15150.73
1309,15144.62
1310,15187.96
1311,15228.79
1312,15227.92
1313,15210.96
1314,15222.47
1315,15280.53
1316,15352.03
1317,15399.66
1318,15417.25
1319,15425.23
1320,15439.77
1321,15446.28
1322,15418.91
1323,15353.92
1324,15299.18
1325,15307.72
1326,15378.38
1327,15455.58
1328,15490.09
1329,15494.6
1330,15508.29
1331,15551.8
1332,15595.79
1333,15604.01
1334,15579.83
1335,15570.81
1336,15618.09
1337,15693.98
1338,15738.48
1339,15716.94
1340,15668.61
1341,15644.72
1342,15656.21
1343,15666.81
1344,15642.29
1345,15587.27
1346,15525.17
1347,15477.36
1348,15458.64
1349,15481.87
1350,15536.24
1351,15583.4
1352,15588.75
1353,15559.86
1354,15524.23
1355,15503.6
1356,15503.25
1357,15525.2
1358,15561.41
1359,15592.79
1360,15603.15
1361,15601.38
1362,15607.24
1363,15633.66
1364,15676.32
1365,15728.21
1366,15782.18
1367,15830.9
1368,15868.39
1369,15897.05
1370,15922.41
1371,15947.89
1372,15972.39
1373,15994.15
1374,16009.78
1375,16014.55
1376,16008.25
1377,16012.77
1378,16056.31
1379,16136.02
1380,16195.97
1381,16180.84
1382,16104.99
1383,16028.25
1384,15996.56
1385,16001.67
1386,16022.76
1387,16034.61
1388,16006.16
1389,15913.75
1390,15797.45
1391,15728.4
1392,15746.71
1393,15810.64
1394,15866.12
1395,15880.59
1396,15841.91
1397,15747.7
1398,15644.16
1399,15593.58
1400,15614.2
1401,15645.31
1402,15623.99
1403,15560.46
1404,15512.67
1405,15523.06
1406,15577.25
1407,15648.49
1408,15709.25
1409,15731.07
1410,15693.16
1411,15627.46
1412,15587.86
1413,15603.46
1414,15650.63
1415,15700.03
1416,15737.92
1417,15762.13
1418,15770.68
1419,15761.37
1420,15732.3
1421,15695.79
1422,15682.13
1423,15714.24
1424,15753.99
1425,15736.95
1426,15643.54
1427,15550.36
1428,15540.64
1429,15615.83
1430,15718
1431,15796.09
1432,15829.71
1433,15806.19
1434,15739.32
1435,15673.58
1436,15648.29
1437,15658.98
1438,15684.4
1439,15707.12
1440,15716.84
1441,15705.66
1442,15684.03
1443,15673.49
1444,15687.19
1445,15713.31
1446,15736.2
1447,15753.45
1448,15774.84
1449,15806.37
1450,15834.58
1451,15840.96
1452,15828.32
1453,15828.43
1454,15867.51
1455,15917.19
1456,15925.75
1457,15878.42
1458,15833.28
1459,15851.18
1460,15927.09
1461,16014.94
1462,16074.67
1463,16085.59
1464,16033.05
1465,15950.9
1466,15915.1
1467,15977.5
1468,16085.77
1469,16162.53
1470,16177.7
1471,16156.74
1472,16125.44
1473,16093.33
1474,16064.17
1475,16040.32
1476,16021.93
1477,16009.96
1478,16013.14
1479,16043.73
1480,16100.1
1481,16152.42
1482,16169.78
1483,16147.37
1484,16096.13
1485,16031.23
1486,15977.95
1487,15961.15
1488,15974.4
1489,15987.57
1490,15978.98
1491,15956.55
1492,15933.8
1493,15915.12
1494,15896.56
1495,15876.41
1496,15863.25
1497,15867.84
1498,15888.84
1499,15911.75
1500,15923.92
1501,15924.8
1502,15917.66
1503,15912.24
1504,15926.36
1505,15971.87
1506,16023.67
1507,16044.27
1508,16023.48
1509,15989.98
1510,15972.78
1511,15983.19
1512,16025.44
1513,16092.45
1514,16159.52
1515,16202.88
1516,16217.33
1517,16205.8
1518,16179.56
1519,16163.94
1520,16180.74
1521,16213.44
1522,16228.01
1523,16212.59
1524,16195.27
1525,16203.52
1526,16226.07
1527,16233.09
1528,16214.4
1529,16196.17
1530,16204.03
1531,16226.59
1532,16234.47
1533,16213.32
1534,16176.8
1535,16143.41
1536,16145.88
1537,16223.36
1538,16365.08
1539,16470.19
1540,16445.83
1541,16337.1
1542,16253.01
1543,16248.63
1544,16285.32
1545,16320.53
1546,16351.25
1547,16391.62
1548,16442.49
1549,16483.32
1550,16497.14
1551,16503.38
1552,16535.48
1553,16589.86
1554,16608.95
1555,16546.83
1556,16450.6
1557,16399.56
1558,16420.33
1559,16471.07
1560,16513.37
1561,16549.13
1562,16591.92
1563,16631.04
1564,16628.53
1565,16563.33
1566,16491.62
1567,16487.03
1568,16561.17
1569,16666.44
1570,16757.89
1571,16808.43
1572,16797.52
1573,16749.29
1574,16723.29
1575,16754.89
1576,16810.61
1577,16848.39
1578,16863.37
1579,16874.4
1580,16897.79
1581,16943.45
1582,17016.92
1583,17093.54
1584,17133.82
1585,17124.13
1586,17093.92
1587,17073.92
1588,17077.21
1589,17110.47
1590,17189.31
1591,17340.46
1592,17567.18
1593,17766.11
1594,17811.18
1595,17721.16
1596,17650.65
1597,17705.72
1598,17824.26
1599,17916.14
1600,17950.96
1601,17939.05
1602,17899.79
1603,17870.49
1604,17882.88
1605,17905.06
1606,17875.61
1607,17785.26
1608,17703.22
1609,17688.07
1610,17709.63
1611,17711.12
1612,17683.06
1613,17664.47
1614,17682.92
1615,17720.75
1616,17752.2
1617,17767.04
1618,17765.67
1619,17748.04
1620,17712.6
1621,17658.98
1622,17596.58
1623,17538.9
1624,17491.3
1625,17448.17
1626,17405.94
1627,17373.11
1628,17360.41
1629,17361.37
1630,17355.02
1631,17335.44
1632,17335.75
1633,17386.06
1634,17437.18
1635,17400.5
1636,17272.18
1637,17175.83
1638,17210.45
1639,17307.34
1640,17353.39
1641,17336.29
1642,17333.48
1643,17381.44
1644,17402
1645,17312.86
1646,17156.83
1647,17039.9
1648,17010.45
1649,17032.51
1650,17071.63
1651,17129.89
1652,17216.7
1653,17298.05
1654,17304.84
1655,17213.1
1656,17104.26
1657,17061.03
1658,17068.3
1659,17069.69
1660,17059.34
1661,17092.91
1662,17200.83
1663,17312.72
1664,17343.95
1665,17299.79
1666,17242.89
1667,17215.9
1668,17225.29
1669,17264.46
1670,17278.8
1671,17204.12
1672,17081.23
1673,17042.78
1674,17150.4
1675,17291.45
1676,17346.21
1677,17323.33
1678,17285.51
1679,17267.21
1680,17270.71
1681,17292.93
1682,17319.75
1683,17336.09
1684,17338.2
1685,17328.39
1686,17307.88
1687,17276.24
1688,17239.84
1689,17231.1
1690,17282.96
1691,17361.5
1692,17390.34
1693,17354.01
1694,17337.64
1695,17403.19
1696,17468.07
1697,17419.85
1698,17290.2
1699,17215.26
1700,17256.4
1701,17335.05
1702,17373.75
1703,17373.35
1704,17357.81
1705,17339.54
1706,17322
1707,17309.9
1708,17310.72
1709,17331.68
1710,17376.8
1711,17447.44
1712,17518.46
1713,17544.01
1714,17505.69
1715,17438.53
1716,17384.13
1717,17386.6
1718,17483.45
1719,17602.11
1720,17587.45
1721,17414.99
1722,17298.13
1723,17403.15
1724,17568.18
1725,17558.6
1726,17408.79
1727,17338.22
1728,17424.31
1729,17510.54
1730,17470.34
1731,17379.26
1732,17351.87
1733,17387.49
1734,17417.01
1735,17406.95
1736,17373.82
1737,17339.92
1738,17334.51
1739,17381.1
1740,17443.77
1741,17459.65
1742,17430.9
1743,17431.46
1744,17496.18
1745,17553.16
1746,17531.98
1747,17472.12
1748,17450.54
1749,17474
1750,17489.98
1751,17475.35
1752,17464.84
1753,17484.81
1754,17498.27
1755,17458.5
1756,17399.8
1757,17404.32
1758,17470.03
1759,17483.31
1760,17379.39
1761,17257.71
1762,17229.55
1763,17283.09
1764,17356.01
1765,17406.05
1766,17409.35
1767,17374.29
1768,17368.61
1769,17438.88
1770,17514.95
1771,17506.9
1772,17435.01
1773,17381.57
1774,17383.03
1775,17420.57
1776,17470.54
1777,17505.47
1778,17502.38
1779,17466.72
1780,17414.79
1781,17377.35
1782,17394.76
1783,17465.13
1784,17526.05
1785,17530.96
1786,17494.57
1787,17443.19
1788,17404.73
1789,17406.51
1790,17454.09
1791,17535.43
1792,17627.31
1793,17689.9
1794,17695.1
1795,17657.6
1796,17598.79
1797,17526.56
1798,17444.51
1799,17377.72
1800,17368.39
1801,17415.81
1802,17450.45
1803,17429.4
1804,17412.8
1805,17462.31
1806,17516.19
1807,17471.37
1808,17352.74
1809,17283.23
1810,17320.51
1811,17423.79
1812,17536.05
1813,17576.99
1814,17487.06
1815,17346.66
1816,17275.89
1817,17284.03
1818,17307.7
1819,17308.61
1820,17280.47
1821,17234.78
1822,17218.34
1823,17262.24
1824,17308.81
1825,17287.37
1826,17224.22
1827,17193.08
1828,17219.33
1829,17283.16
1830,17354.21
1831,17387.66
1832,17358.61
1833,17306.51
1834,17277.3
1835,17283.73
1836,17324.35
1837,17370.3
1838,17375.86
1839,17318.51
1840,17202.37
1841,17073.94
1842,17059.12
1843,17226.72
1844,17412.49
1845,17432.76
1846,17313.49
1847,17163.8
1848,17083.36
1849,17160.56
1850,17339.41
1851,17395.9
1852,17248.4
1853,17117.42
1854,17172.1
1855,17278.11
1856,17269.75
1857,17198.24
1858,17187.15
1859,17228.9
1860,17232.96
1861,17171.9
1862,17087.27
1863,17023.75
1864,17025.44
1865,17103.59
1866,17173.14
1867,17155.14
1868,17091.38
1869,17056.87
1870,17082.07
1871,17170.46
1872,17261.74
1873,17244.51
1874,17114.56
1875,17013
1876,17022.66
1877,17079.93
1878,17118.03
1879,17125.75
1880,17104.84
1881,17062.08
1882,17005.94
1883,16942.49
1884,16877.39
1885,16832.37
1886,16842.34
1887,16889.06
1888,16881.34
1889,16796.85
1890,16769.73
1891,16882.38
1892,16978.68
1893,16902.65
1894,16764.67
1895,16745.62
1896,16870.56
1897,17079.58
1898,17236.92
1899,17156.4
1900,16879.41
1901,16706.37
1902,16772.01
1903,16907.25
1904,16969.68
1905,16958.88
1906,16897.11
1907,16809.07
1908,16720.86
1909,16662.03
1910,16658.37
1911,16687.6
1912,16704.49
1913,16708.59
1914,16733.01
1915,16768.42
1916,16758.01
1917,16676.24
1918,16550.95
1919,16443.85
1920,16481.94
1921,16710.65
1922,16880.74
1923,16759.64
1924,16481.16
1925,16268.67
1926,16209.81
1927,16321.09
1928,16477.21
1929,16482.76
1930,16378.24
1931,16390.64
1932,16534.35
1933,16583.44
1934,16456.54
1935,16309.72
1936,16266.36
1937,16341.42
1938,16494.49
1939,16566.81
1940,16445.26
1941,16276.09
1942,16226.46
1943,16234.42
1944,16185.8
1945,16149.22
1946,16253.77
1947,16393.91
1948,16341.34
1949,16149.24
1950,16083.86
1951,16199.23
1952,16329.63
1953,16366.36
1954,16289.1
1955,16140.79
1956,16060.19
1957,16113.27
1958,16188.15
1959,16182.17
1960,16083.89
1961,15923.39
1962,15823.7
1963,15876.26
1964,15924.75
1965,15800.11
1966,15696.8
1967,15884.29
1968,16149.68
1969,16099.69
1970,15829.2
1971,15696.51
1972,15735.45
1973,15751.1
1974,15691.62
1975,15634.12
1976,15619.88
1977,15646.08
1978,15666.06
1979,15581.37
1980,15400.47
1981,15301.02
1982,15382.8
1983,15574.55
1984,15755.87
1985,15739.38
1986,15473.42
1987,15288.08
1988,15416.69
1989,15591.21
1990,15552.04
1991,15441.11
1992,15438.5
1993,15476.08
1994,15444.07
1995,15374.69
1996,15333.51
1997,15307.43
1998,15260.23
1999,15204.15
2000,15169.38
2001,15159.2
2002,15162.13
2003,15154.66
2004,15112.18
2005,15075.98
2006,15118.75
2007,15172.55
2008,15082.64
2009,14907.89
2010,14865.61
2011,14956.75
2012,14995.88
2013,14925.91
2014,14816.98
2015,14700.98
2016,14567.69
2017,14494.03
2018,14650.37
2019,14960.98
2020,15050.37
2021,14818.7
2022,14549.44
2023,14428.07
2024,14464.49
2025,14583.71
2026,14606.4
2027,14509.98
2028,14529.11
2029,14710.06
2030,14752.53
2031,14545.89
2032,14362.3
2033,14345.34
2034,14339.35
2035,14261.18
2036,14220.32
2037,14280.44
2038,14377.18
2039,14427.57
2040,14341.46
2041,14121.53
2042,13956.45
2043,13962.83
2044,14067.33
2045,14169.08
2046,14158.45
2047,14014.27
2048,13896.09
2049,13888.42
2050,13881.27
2051,13828.78
2052,13857.93
2053,13985.73
2054,13975.86
2055,13718.34
2056,13400.45
2057,13188.86
2058,13149.01
2059,13286.6
2060,13519.28
2061,13722.28
2062,13716.23
2063,13489.59
2064,13313.66
2065,13305.31
2066,13299.59
2067,13211.52
2068,13110.42
2069,13034.66
2070,12962.87
2071,12901.54
2072,12898.28
2073,12963.92
2074,13060.88
2075,13141.2
2076,13150.16
2077,13070.47
2078,12926.2
2079,12784.51
2080,12746.11
2081,12809.51
2082,12886.21
2083,12933.15
2084,12944.5
2085,12904.48
2086,12797.41
2087,12697.14
2088,12710.47
2089,12710.85
2090,12489.89
2091,12260.1
2092,12362.09
2093,12546.05
2094,12401.42
2095,12115.54
2096,12026.17
2097,12071.57
2098,12086.62
2099,12025.03
2100,11902.48
2101,11843.55
2102,11915.96
2103,11926.98
2104,11769.43
2105,11698.65
2106,11851.33
2107,11968.76
2108,11864.38
2109,11587.04
2110,11275.39
2111,11162.26
2112,11271.31
2113,11349.1
2114,11289.51
2115,11165.78
2116,11050.55
2117,11003.95
2118,11028.38
2119,11082.31
2120,11106.06
2121,11045.73
2122,10977.77
2123,11015.22
2124,11104.14
2125,11141.01
2126,11096.17
2127,10979.5
2128,10865.43
2129,10808.01
2130,10757.45
2131,10707.95
2132,10793.67
2133,10978.73
2134,10901.14
2135,10494.86
2136,10138.43
2137,10004.26
2138,10010.09
2139,10087.22
2140,10188.76
2141,10270.94
2142,10299.47
2143,10305.13
2144,10328.97
2145,10287.08
2146,10098.52
2147,9889.023
2148,9794.925
2149,9813.675
2150,9872.515
2151,9802.764
2152,9587.498
2153,9479.082
2154,9528.514
2155,9517.053
2156,9436.139
2157,9461.056
2158,9476.476
2159,9224.414
2160,8913.079
2161,8889.188
2162,9001.619
2163,9010.786
2164,8995.772
2165,9046.532
2166,9081.483
2167,9050.62
2168,9012.205
2169,8959.33
2170,8793.098
2171,8584.505
2172,8540.584
2173,8545.964
2174,8341.86
2175,8194.094
2176,8452.521
2177,8719.238
2178,8563.95
2179,8179.467
2180,7836.591
2181,7703.91
2182,7782.391
2183,7856.754
2184,7866.314
2185,7904.396
2186,7882.219
2187,7641.189
2188,7435.765
2189,7560.844
2190,7650.562
2191,7365.826
2192,6994.809
2193,6823.029
2194,6914.881
2195,7180.598
2196,7378.921
2197,7399.273
2198,7254.42
2199,7046.623
2200,6914.479
2201,6948.295
2202,7133.261
2203,7169.033
2204,6884.943
2205,6484.569
2206,6198.653
2207,6220.805
2208,6501.138
2209,6795.177
2210,6864.562
2211,6584.659
2212,6361.494
2213,6506.688
2214,6589.994
2215,6376.788
2216,6198.59
2217,6160.789
2218,6080.479
2219,5990.267
2220,6031.275
2221,6051.616
2222,5868.603
2223,5621.979
2224,5483.41
2225,5529.417
2226,5652.683
2227,5556.765
2228,5365.149
2229,5454.565
2230,5627.403
2231,5536.372
2232,5288.298
2233,5106.583
2234,5208.701
2235,5459.664
2236,5308.564
2237,4843.013
2238,4594.111
2239,4600.792
2240,4667.701
2241,4552.031
2242,4229.869
2243,4145.765
2244,4441.155
2245,4829.562
2246,5010.819
2247,4787.179
2248,4532.528
2249,4598.701
2250,4611.013
2251,4408.354
2252,4399.538
2253,4475.48
2254,4097.778
2255,3668.316
2256,3825.681
2257,4088.005
2258,4015.719
2259,3929.608
2260,3933.533
2261,3781.807
2262,3606.472
2263,3689.723
2264,3712.385
2265,3405.573
2266,3188.529
2267,3273.728
2268,3426.301
2269,3498.209
2270,3449.747
2271,3352.461
2272,3286.35
2273,3229.035
2274,3173.094
2275,3156.178
2276,3103.736
2277,2898.285
2278,2750.241
2279,2838.151
2280,2834.583
2281,2635.873
2282,2601.902
2283,2724.285
2284,2717.301
2285,2547.851
2286,2344.515
2287,2403.351
2288,2706.645
2289,2788.806
2290,2584.001
2291,2319.045
2292,2161.522
2293,2171.567
2294,2203.69
2295,2197.052
2296,2209.173
2297,2122.102
2298,1834.6
2299,1758.09
2300,2024.965
