400,40368.81
401,40310.52
402,40300.75
403,40322.86
404,40358.57
405,40389.74
406,40398.89
407,40368.75
408,40284.72
409,40170.82
410,40080.77
411,40068.43
412,40146.15
413,40245.98
414,40291.13
415,40222.91
416,40077.61
417,39922.8
418,39822.86
419,39792.27
420,39803.07
421,39826.18
422,39839.86
423,39837.8
424,39815.61
425,39771.17
426,39715.26
427,39663.11
428,39629.29
429,39617.09
430,39619.82
431,39630.54
432,39641.99
433,39646.33
434,39635.66
435,39604.98
436,39565.67
437,39534.77
438,39527.67
439,39531.8
440,39510.63
441,39427.19
442,39271.81
443,39090.16
444,38934.39
445,38847.12
446,38822.02
447,38836.85
448,38869.43
449,38896.54
450,38894.18
451,38838.67
452,38726.17
453,38588.86
454,38462.63
455,38373.62
456,38304.98
457,38227.69
458,38116.03
459,37983.84
460,37871.67
461,37819.77
462,37828.48
463,37837.25
464,37780.67
465,37619.35
466,37408.24
467,37223.53
468,37132.64
469,37123.38
470,37139.99
471,37127.57
472,37068.06
473,36988.14
474,36917.08
475,36873.11
476,36844.35
477,36813.79
478,36767.16
479,36708.12
480,36647.73
481,36596.31
482,36549.8
483,36491.06
484,36402.63
485,36280.94
486,36149.89
487,36036.53
488,35961.42
489,35915.69
490,35882.05
491,35844.27
492,35797.79
493,35745.54
494,35690.52
495,35633.53
496,35572.35
497,35504.58
498,35429.09
499,35348.54
500,35266.27
501,35185.38
502,35107.24
503,35032.5
504,34962.14
505,34903.21
506,34868.23
507,34869.63
508,34899.93
509,34914.98
510,34866.88
511,34727.83
512,34550.54
513,34407.75
514,34362.66
515,34391.52
516,34423.15
517,34388.32
518,34276.57
519,34142.5
520,34043.68
521,34010.29
522,34011.09
523,34006.54
524,33963.84
525,33882.32
526,33771.1
527,33639
528,33492.2
529,33335.17
530,33172.52
531,33014.86
532,32880.27
533,32787.19
534,32745.19
535,32742
536,32762.09
537,32788.05
538,32792.5
539,32744.84
540,32619.2
541,32444.13
542,32283.89
543,32201.47
544,32203.54
545,32226
546,32200.61
547,32094.13
548,31958.57
549,31858.51
550,31841.79
551,31873.33
552,31892.24
553,31843.64
554,31736.36
555,31618.33
556,31536.71
557,31504.03
558,31493.05
559,31474.5
560,31431.84
561,31376.02
562,31321.49
563,31278.86
564,31242.24
565,31201.38
566,31147.04
567,31078.8
568,31000.81
569,30917.45
570,30838.11
571,30776.9
572,30747.89
573,30751.25
574,30763.01
575,30756.9
576,30712.8
577,30630.48
578,30513.72
579,30369.65
580,30226.77
581,30121.95
582,30088.07
583,30106.59
584,30122.15
585,30080.06
586,29969.39
587,29834.6
588,29723.37
589,29661.77
590,29627.22
591,29590.56
592,29529.02
593,29446.26
594,29352.87
595,29259.34
596,29175.55
597,29111.1
598,29074.64
599,29059.4
600,29045.69
601,29013.79
602,28959.63
603,28901.63
604,28859.86
605,28844.46
606,28840.78
607,28830.43
608,28799.83
609,28757.39
610,28717.71
611,28692.42
612,28668.82
613,28621.97
614,28528.67
615,28395.84
616,28255.94
617,28141.71
618,28068.85
619,28029.06
620,28012.23
621,28004.4
622,27982.15
623,27920.84
624,27806.7
625,27670.87
626,27556
627,27498.38
628,27488.59
629,27496.86
630,27494.69
631,27470.89
632,27427.12
633,27365.33
634,27289.01
635,27203.45
636,27114.01
637,27026.71
638,26948.82
639,26887.72
640,26847.52
641,26821.96
642,26802.73
643,26782.51
644,26759.05
645,26731.8
646,26699.83
647,26658.45
648,26600.91
649,26521.54
650,26433.7
651,26367.23
652,26351.61
653,26382.81
654,26411.67
655,26386.26
656,26282.9
657,26137.65
658,25994.05
659,25888.51
660,25833.87
661,25837.86
662,25900.16
663,25975.75
664,26004.29
665,25933.96
666,25789.49
667,25637.12
668,25540.19
669,25512.26
670,25525.78
671,25552.12
672,25564.72
673,25539.56
674,25453.16
675,25309.81
676,25165.92
677,25083.34
678,25092.46
679,25133.58
680,25131.18
681,25031.78
682,24879.81
683,24747.01
684,24693.72
685,24702.05
686,24720.48
687,24701.46
688,24641.95
689,24567.4
690,24502.76
691,24455.17
692,24415.19
693,24372.93
694,24323.94
695,24271.15
696,24217.97
697,24164.15
698,24102.3
699,24024.2
700,23931.47
701,23853.94
702,23826.4
703,23867.96
704,23930.42
705,23947.7
706,23867.2
707,23721.66
708,23577.61
709,23495.38
710,23476.01
711,23486.82
712,23495.84
713,23487.05
714,23457.23
715,23403.75
716,23330.83
717,23250.36
718,23174.48
719,23111.42
720,23063.38
721,23032.02
722,23014.38
723,22997.59
724,22967.51
725,22916.11
726,22853.78
727,22794.3
728,22746.93
729,22701.44
730,22642.38
731,22559.28
732,22471.92
733,22411.48
734,22403.77
735,22428.38
736,22440.83
737,22400.09
738,22310.32
739,22207.46
740,22126.7
741,22077.69
742,22046.2
743,22017.26
744,21982.41
745,21941.17
746,21893.57
747,21839.36
748,21777.79
749,21708.15
750,21637.61
751,21590.63
752,21593.79
753,21652.96
754,21713.59
755,21710.48
756,21604.4
757,21457.23
758,21355.28
759,21364.01
760,21441.1
761,21509.11
762,21501.48
763,21426.23
764,21323.36
765,21230.09
766,21156.99
767,21099.83
768,21054.1
769,21013.88
770,20972.18
771,20922.53
772,20867.78
773,20819.13
774,20787.63
775,20772.05
776,20757.33
777,20728.02
778,20680.82
779,20629.63
780,20589.46
781,20562.58
782,20528.88
783,20466.16
784,20371.14
785,20282.34
786,20243.68
787,20275.02
788,20329.87
789,20350.5
790,20298.37
791,20200.99
792,20100.12
793,20028.08
794,19976.55
795,19926.19
796,19862.54
797,19797.63
798,19752.41
799,19743.6
800,19759.81
801,19777.96
802,19776.78
803,19750.01
804,19698.95
805,19625.96
806,19543.8
807,19471.58
808,19427.18
809,19412.18
810,19416.33
811,19428.75
812,19431.75
813,19401.75
814,19316.71
815,19191.89
816,19080.11
817,19034.08
818,19057.21
819,19094.85
820,19090.13
821,19026.39
822,18942.08
823,18879.18
824,18859.9
825,18875.05
826,18912.59
827,18954.89
828,18973.9
829,18940.71
830,18846.3
831,18724.21
832,18613.24
833,18540.14
834,18502.12
835,18491.95
836,18499.04
837,18503.19
838,18482.6
839,18425.63
840,18353.57
841,18294.29
842,18267.31
843,18261.35
844,18257.98
845,18241.92
846,18210.68
847,18165.23
848,18107.87
849,18047.57
850,17995.23
851,17959.48
852,17936.81
853,17919.68
854,17900.77
855,17874.1
856,17834.21
857,17777.46
858,17712.63
859,17653.56
860,17612.45
861,17589.05
862,17577.5
863,17571.59
864,17562.93
865,17542.02
866,17501.18
867,17449.61
868,17405.65
869,17385.45
870,17382.68
871,17377.84
872,17353.56
873,17317.53
874,17293.2
875,17301.24
876,17325.94
877,17327.07
878,17268.06
879,17165.12
880,17072.21
881,17040.24
882,17067.11
883,17110.54
884,17129.56
885,17116.23
886,17088.95
887,17065.95
888,17050.9
889,17035.35
890,17011.05
891,16979.78
892,16952.03
893,16937.95
894,16936.49
895,16936.48
896,16926.91
897,16906.17
898,16881.53
899,16860.27
900,16844.36
901,16830.6
902,16815.51
903,16792.83
904,16753.61
905,16689.66
906,16612.04
907,16551.12
908,16536.34
909,16559.12
910,16572.26
911,16528.92
912,16428.55
913,16318
914,16244.58
915,16218.52
916,16211.83
917,16195.81
918,16163.91
919,16132.41
920,16117.78
921,16117.07
922,16107.33
923,16065.74
924,15992.08
925,15909.13
926,15840.15
927,15797
928,15780.14
929,15788.88
930,15808.6
931,15810.95
932,15768.69
933,15690.55
934,15619.97
935,15599.5
936,15626.61
937,15656.24
938,15643.74
939,15582.95
940,15502.87
941,15432.85
942,15386.47
943,15363.32
944,15362.03
945,15372.52
946,15377.25
947,15359.95
948,15327.39
949,15305.13
950,15316.93
951,15352.54
952,15375.29
953,15351.27
954,15293.01
955,15247.21
956,15256.38
957,15300.41
958,15315.65
959,15245.05
960,15117.49
961,15018.06
962,15023.61
963,15114.23
964,15210.81
965,15240.97
966,15204.83
967,15143.77
968,15095.88
969,15066.07
970,15041.76
971,15012.28
972,14983.37
973,14968.78
974,14978.64
975,14996.16
976,14992.62
977,14944.07
978,14857.89
979,14754.21
980,14653.34
981,14577.09
982,14547.75
983,14579.74
984,14646.05
985,14705.99
986,14726.47
987,14710.08
988,14670.01
989,14620.66
990,14581.85
991,14574.75
992,14608.7
993,14648.91
994,14650.44
995,14586.44
996,14489.45
997,14404.12
998,14361.13
999,14351.09
1000,14357.44
1001,14364.33
1002,14357.62
1003,14323.52
1004,14258.87
1005,14184.07
1006,14122.59
1007,14092.72
1008,14088.85
1009,14098.56
1010,14111.66
1011,14127.02
1012,14145.75
1013,14166.11
1014,14176.43
1015,14162.92
1016,14120.86
1017,14072.31
1018,14044.23
1019,14051.09
1020,14075.64
1021,14095.75
1022,14096.9
1023,14080.93
1024,14051.88
1025,14016.78
1026,13988.16
1027,13978.98
1028,13991.22
1029,14009.81
1030,14018.37
1031,14007.83
1032,13978.75
1033,13932.59
1034,13878.32
1035,13833.15
1036,13813.88
1037,13820.49
1038,13837.29
1039,13848.57
1040,13846.41
1041,13828.89
1042,13795.64
1043,13762.01
1044,13753.3
1045,13790.57
1046,13856.45
1047,13913.72
1048,13930.81
1049,13915.23
1050,13890.72
1051,13876.93
1052,13871.71
1053,13865.74
1054,13852.93
1055,13840.52
1056,13839.14
1057,13853.65
1058,13870.53
1059,13872.63
1060,13850.21
1061,13811.81
1062,13768.7
1063,13731.3
1064,13708.36
1065,13708.24
1066,13726.15
1067,13737.76
1068,13718.1
1069,13671.51
1070,13636.37
1071,13650.79
1072,13712.37
1073,13782.19
1074,13823.23
1075,13838.81
1076,13860.14
1077,13915.59
1078,14003.75
1079,14107.52
1080,14211.66
1081,14313.26
1082,14414.24
1083,14513.92
1084,14599.84
1085,14656.11
1086,14673.82
1087,14666.81
1088,14653.6
1089,14647.98
1090,14652.58
1091,14668.28
1092,14683.21
1093,14663.49
1094,14574.23
1095,14423.81
1096,14275.34
1097,14192.39
1098,14177.48
1099,14176.55
1100,14137.48
1101,14057.49
1102,13967.02
1103,13894.38
1104,13846.08
1105,13818.17
1106,13807.1
1107,13811.9
1108,13832.47
1109,13865.7
1110,13897.65
1111,13911.93
1112,13902.06
1113,13886.01
1114,13885.29
1115,13908.74
1116,13943.49
1117,13974.74
1118,13992.5
1119,13992.48
1120,13971.12
1121,13930.32
1122,13876.57
1123,13815.77
1124,13746.66
1125,13663.92
1126,13566.68
1127,13481.69
1128,13446.19
1129,13477.52
1130,13514.26
1131,13475.7
1132,13325.81
1133,13142.63
1134,13021.33
1135,13003.05
1136,13038.19
1137,13069.54
1138,13069.94
1139,13045.79
1140,13005.12
1141,12954.28
1142,12898.3
1143,12843.47
1144,12806.6
1145,12809.61
1146,12864.52
1147,12934.54
1148,12967.99
1149,12935.13
1150,12872.58
1151,12829.14
1152,12827.32
1153,12839.88
1154,12834.63
1155,12797.06
1156,12733.96
1157,12653.94
1158,12574.04
1159,12517.77
1160,12504.5
1161,12518.56
1162,12527.23
1163,12505.7
1164,12466.72
1165,12434.07
1166,12422.87
1167,12424.16
1168,12424.94
1169,12419.13
1170,12412.34
1171,12411
1172,12414.84
1173,12416.65
1174,12409.02
1175,12386.04
1176,12342.78
1177,12277.7
1178,12209.84
1179,12166.15
1180,12163.57
1181,12184.2
1182,12202.69
1183,12204.42
1184,12196.29
1185,12187.54
1186,12180.65
1187,12170.05
1188,12150.25
1189,12123.57
1190,12097.87
1191,12080.93
1192,12079.12
1193,12098.23
1194,12137.73
1195,12173.96
1196,12178.12
1197,12141.07
1198,12093.6
1199,12070.36
1200,12075.87
1201,12079.42
1202,12051.55
1203,12002.94
1204,11971.44
1205,11987.05
1206,12028.46
1207,12055
1208,12038.42
1209,11990.6
1210,11931.45
1211,11882.72
1212,11869.25
1213,11914.47
1214,12002.47
1215,12078.79
1216,12093.4
1217,12053.16
1218,11996.04
1219,11955.87
1220,11945.68
1221,11972.48
1222,12032.36
1223,12095.43
1224,12128.6
1225,12122.83
1226,12099.98
1227,12082.28
1228,12070.12
1229,12048.51
1230,12006.97
1231,11963.88
1232,11948.36
1233,11977.43
1234,12032.26
1235,12087.52
1236,12123.5
1237,12129.07
1238,12095.61
1239,12043.01
1240,12014.44
1241,12044.71
1242,12105.8
1243,12143.11
1244,12121.46
1245,12070.09
1246,12031.24
1247,12025.82
1248,12039.72
1249,12055.95
1250,12064.61
1251,12061.8
1252,12045.84
1253,12029.12
1254,12030.15
1255,12058.33
1256,12093.03
1257,12107.8
1258,12095.77
1259,12081.45
1260,12090.31
1261,12117.87
1262,12135.46
1263,12120
1264,12089.33
1265,12077.56
1266,12103.25
1267,12139.25
1268,12150.53
1269,12123.16
1270,12072.73
1271,12017.21
1272,11976.14
1273,11970.19
1274,12011.75
1275,12069.5
1276,12097.89
1277,12076.09
1278,12041.22
1279,12037.48
1280,12074.16
1281,12121.54
1282,12150.22
1283,12152.44
1284,12132.02
1285,12098.14
1286,12079.9
1287,12110.77
1288,12188.68
1289,12251
1290,12234.01
1291,12153.02
1292,12086.98
1293,12100.24
1294,12159.19
1295,12194.24
1296,12165.8
1297,12109.73
1298,12072.45
1299,12068.59
1300,12076.65
1301,12076.44
1302,12076.94
1303,12102.39
1304,12162.95
1305,12218.61
1306,12219
1307,12159.16
1308,12103.19
1309,12115.45
1310,12188.51
1311,12265.45
1312,12300.46
1313,12305.15
1314,12307.95
1315,12323.08
1316,12337.2
1317,12335.01
1318,12322.57
1319,12324.24
1320,12358.89
1321,12409.11
1322,12444.22
1323,12448.6
1324,12442.01
1325,12448.32
1326,12468.59
1327,12480.98
1328,12467.86
1329,12448.38
1330,12457.44
1331,12510.81
1332,12572.92
1333,12600.91
1334,12589.33
1335,12574.38
1336,12588.45
1337,12616.6
1338,12621.71
1339,12586.39
1340,12550.64
1341,12563.2
1342,12621.96
1343,12665.31
1344,12637.85
1345,12562.65
1346,12500.87
1347,12492.7
1348,12516.08
1349,12538.13
1350,12543.13
1351,12535.31
1352,12520.39
1353,12507.11
1354,12505.59
1355,12521.13
1356,12545.44
1357,12568.15
1358,12586.57
1359,12606.41
1360,12631.66
1361,12651.09
1362,12646.86
1363,12615.44
1364,12589.04
1365,12604.03
1366,12664.64
1367,12743.89
1368,12816.9
1369,12879.99
1370,12937.33
1371,12988.07
1372,13020.63
1373,13023.37
1374,13006.43
1375,12997.86
1376,13018.68
1377,13053.15
1378,13074.54
1379,13071.7
1380,13060.04
1381,13056.29
1382,13061.04
1383,13064.45
1384,13057.82
1385,13037.48
1386,13000.92
1387,12946.64
1388,12874.36
1389,12787.18
1390,12714.76
1391,12699.71
1392,12758.41
1393,12838.29
1394,12877.43
1395,12853.99
1396,12784.23
1397,12688.26
1398,12598.58
1399,12551.71
1400,12556.69
1401,12573.31
1402,12560.41
1403,12527.5
1404,12517.14
1405,12554.96
1406,12605.9
1407,12623
1408,12601.9
1409,12588.58
1410,12622.92
1411,12682.56
1412,12719.33
1413,12710.46
1414,12687.2
1415,12684.91
1416,12698.4
1417,12692.29
1418,12645.85
1419,12598.05
1420,12601.16
1421,12659.97
1422,12719.21
1423,12727.69
1424,12691.73
1425,12642.65
1426,12607.47
1427,12603.79
1428,12645.35
1429,12708.84
1430,12744.03
1431,12718.11
1432,12664.32
1433,12630.15
1434,12633.8
1435,12659.43
1436,12691
1437,12723.62
1438,12756.61
1439,12785.3
1440,12797.71
1441,12782.97
1442,12751
1443,12724.33
1444,12717.9
1445,12723.91
1446,12730.96
1447,12737.03
1448,12748.83
1449,12772.43
1450,12809.49
1451,12860.17
1452,12912.14
1453,12936.22
1454,12909.04
1455,12857.56
1456,12830.36
1457,12853.23
1458,12906.87
1459,12967.25
1460,13017.06
1461,13043.17
1462,13039.04
1463,13016.81
1464,12991.87
1465,12978.46
1466,12989.81
1467,13030.12
1468,13066.95
1469,13059.84
1470,13011.25
1471,12973.91
1472,12992.6
1473,13049.86
1474,13106.44
1475,13133.11
1476,13116.42
1477,13049.98
1478,12972.22
1479,12942.49
1480,12982.46
1481,13037.27
1482,13048.35
1483,13018
1484,12985.33
1485,12973.49
1486,12962.64
1487,12928.31
1488,12879.01
1489,12848.2
1490,12858.95
1491,12898.2
1492,12945.06
1493,12970.01
1494,12935.54
1495,12826.73
1496,12720.4
1497,12713.41
1498,12814.5
1499,12936.55
1500,13002.58
1501,13008.87
1502,12973.88
1503,12922.31
1504,12886.7
1505,12892.76
1506,12924.42
1507,12951.24
1508,12954.93
1509,12934.65
1510,12894.98
1511,12866.71
1512,12890.42
1513,12969.08
1514,13046.36
1515,13069.71
1516,13052.01
1517,13034.19
1518,13038.4
1519,13054.58
1520,13070.98
1521,13087.05
1522,13107.39
1523,13132.41
1524,13154.96
1525,13168.09
1526,13172.55
1527,13172.81
1528,13173.31
1529,13178.32
1530,13190.92
1531,13204.39
1532,13207.28
1533,13196.76
1534,13185.93
1535,13189.52
1536,13221.35
1537,13294.55
1538,13396.81
1539,13470.08
1540,13460.06
1541,13380.81
1542,13278.28
1543,13194.34
1544,13163.34
1545,13210.68
1546,13301.67
1547,13375.56
1548,13405.32
1549,13418.25
1550,13441.54
1551,13469.05
1552,13481.57
1553,13476.17
1554,13473.76
1555,13491.09
1556,13509.33
1557,13497.62
1558,13454.37
1559,13415.98
1560,13413.12
1561,13434.69
1562,13457.37
1563,13479.19
1564,13522.28
1565,13596.87
1566,13657.85
1567,13648.89
1568,13585.29
1569,13550.79
1570,13598.46
1571,13666.37
1572,13673.82
1573,13633.38
1574,13631.45
1575,13709.96
1576,13783.57
1577,13757.16
1578,13673.46
1579,13662.99
1580,13781.04
1581,13918.25
1582,13959.23
1583,13920.15
1584,13882.57
1585,13891.44
1586,13930.19
1587,13979.29
1588,14036.96
1589,14107.67
1590,14178.85
1591,14216.55
1592,14203.49
1593,14202.01
1594,14292.09
1595,14461.53
1596,14611.65
1597,14672.65
1598,14675.68
1599,14669.67
1600,14679.71
1601,14714.59
1602,14763.2
1603,14772
1604,14693.29
1605,14571.28
1606,14493.1
1607,14486.78
1608,14491.29
1609,14451.8
1610,14384.07
1611,14325.86
1612,14299.65
1613,14312.21
1614,14361.8
1615,14420.96
1616,14458.66
1617,14466.95
1618,14453.61
1619,14421.9
1620,14364.94
1621,14280.49
1622,14209.34
1623,14210
1624,14284.79
1625,14360.9
1626,14376.15
1627,14337.36
1628,14270.1
1629,14203.81
1630,14171.21
1631,14184.85
1632,14206.1
1633,14193.52
1634,14151.3
1635,14106.91
1636,14077.5
1637,14064.44
1638,14066.09
1639,14072.83
1640,14073.45
1641,14072.37
1642,14087.92
1643,14119.85
1644,14118.53
1645,14036.29
1646,13912.21
1647,13829.1
1648,13827.97
1649,13888.54
1650,13981.1
1651,14056.01
1652,14061.85
1653,14010.94
1654,13967.26
1655,13967.32
1656,13981.24
1657,13975.87
1658,13961.32
1659,13965.88
1660,13991.59
1661,14008.55
1662,14002.22
1663,14018.09
1664,14106.1
1665,14215.68
1666,14232.89
1667,14130.48
1668,14032.27
1669,14045.42
1670,14114.98
1671,14139.57
1672,14108.54
1673,14090.6
1674,14120.13
1675,14144.49
1676,14112.46
1677,14071.3
1678,14107.4
1679,14215.98
1680,14288.65
1681,14257.01
1682,14192.59
1683,14183.34
1684,14219.55
1685,14239.2
1686,14212.01
1687,14152.78
1688,14084.26
1689,14046.31
1690,14077.83
1691,14157.26
1692,14224.32
1693,14249.85
1694,14256.64
1695,14264.69
1696,14260.42
1697,14223.77
1698,14174.82
1699,14162.46
1700,14190.9
1701,14182.28
1702,14081.27
1703,13985.45
1704,14028.36
1705,14177.52
1706,14271.48
1707,14238.62
1708,14185.11
1709,14208.38
1710,14259.28
1711,14249.56
1712,14203.6
1713,14234.28
1714,14366.52
1715,14453.67
1716,14371.8
1717,14206.13
1718,14099.32
1719,14087.22
1720,14124.42
1721,14174.34
1722,14219.94
1723,14249.01
1724,14262.23
1725,14264.43
1726,14266.63
1727,14283.89
1728,14311.61
1729,14313.57
1730,14264.87
1731,14196.61
1732,14151.53
1733,14148.79
1734,14192.79
1735,14263.2
1736,14306.24
1737,14289.69
1738,14258.53
1739,14265.07
1740,14293.49
1741,14295.66
1742,14256.77
1743,14198.98
1744,14149.05
1745,14140.17
1746,14195.6
1747,14271.36
1748,14301.77
1749,14286.4
1750,14279.78
1751,14302.02
1752,14306.26
1753,14258.5
1754,14211.52
1755,14233.83
1756,14307.76
1757,14363.54
1758,14370.62
1759,14351.09
1760,14325.97
1761,14302.56
1762,14284.55
1763,14267.44
1764,14243.47
1765,14207.95
1766,14159.1
1767,14111.46
1768,14110.02
1769,14190.06
1770,14331.75
1771,14496.17
1772,14598.73
1773,14532.41
1774,14317.27
1775,14124.11
1776,14068.3
1777,14106.27
1778,14174.89
1779,14237.02
1780,14266.36
1781,14265.08
1782,14255.43
1783,14245.96
1784,14225.01
1785,14186.3
1786,14144.14
1787,14116.1
1788,14116.19
1789,14155.44
1790,14219.96
1791,14275.95
1792,14300.81
1793,14290.59
1794,14246.59
1795,14181.73
1796,14114.54
1797,14085.52
1798,14139.39
1799,14235.3
1800,14263.1
1801,14207.68
1802,14207.7
1803,14343.05
1804,14465.57
1805,14416.46
1806,14262.87
1807,14156.25
1808,14144.72
1809,14196.09
1810,14269.03
1811,14312.2
1812,14301.51
1813,14291.15
1814,14331.8
1815,14378.25
1816,14359.34
1817,14294.48
1818,14261.14
1819,14273.66
1820,14268.84
1821,14220.8
1822,14197.61
1823,14251.3
1824,14309.01
1825,14278.44
1826,14192.76
1827,14146.21
1828,14164.99
1829,14212.04
1830,14259.98
1831,14301.37
1832,14330.48
1833,14341.22
1834,14330.04
1835,14308.33
1836,14290.34
1837,14261.31
1838,14189.48
1839,14090.56
1840,14033.35
1841,14047.95
1842,14083.65
1843,14095.18
1844,14089.41
1845,14082.85
1846,14080.31
1847,14082.69
1848,14100.92
1849,14151.72
1850,14214.37
1851,14224.36
1852,14147.59
1853,14015.45
1854,13878.62
1855,13827.24
1856,13938.2
1857,14150.44
1858,14351.24
1859,14445.91
1860,14356.65
1861,14141.68
1862,14002.92
1863,14034.99
1864,14132.19
1865,14192.41
1866,14184.03
1867,14104.35
1868,14032.48
1869,14056.48
1870,14112.88
1871,14067.82
1872,13949.3
1873,13919.92
1874,14026.74
1875,14156.78
1876,14227.81
1877,14247.63
1878,14230.96
1879,14176.2
1880,14085.87
1881,14006.88
1882,13996
1883,14046.27
1884,14113.97
1885,14156.13
1886,14131.71
1887,14038.88
1888,13929.39
1889,13859.33
1890,13885.37
1891,14020.71
1892,14133.52
1893,14098
1894,13982.57
1895,13907.64
1896,13885.47
1897,13875.39
1898,13874.23
1899,13906.89
1900,13964.9
1901,14000.97
1902,13977.54
1903,13877.28
1904,13728.25
1905,13667.8
1906,13784.59
1907,13913.61
1908,13874.23
1909,13755.73
1910,13727.6
1911,13787.58
1912,13845.09
1913,13877.63
1914,13914.56
1915,13936.2
1916,13868.32
1917,13717.13
1918,13619.59
1919,13648.9
1920,13708.78
1921,13722.48
1922,13752.39
1923,13847.76
1924,13861.11
1925,13633.65
1926,13336.22
1927,13251.64
1928,13364.24
1929,13487.87
1930,13560.95
1931,13623.81
1932,13666.38
1933,13620.64
1934,13505.62
1935,13475.76
1936,13589.7
1937,13685.8
1938,13651.58
1939,13590
1940,13601.89
1941,13632.43
1942,13606.12
1943,13540.54
1944,13483
1945,13469.52
1946,13522.96
1947,13580.43
1948,13535.63
1949,13406.49
1950,13304.96
1951,13250.22
1952,13166.87
1953,13060.57
1954,13047.43
1955,13166.97
1956,13317.52
1957,13413.1
1958,13431.47
1959,13375.24
1960,13293.43
1961,13229.4
1962,13176.36
1963,13121.95
1964,13080.92
1965,13075.78
1966,13127.55
1967,13243.68
1968,13329.55
1969,13262.49
1970,13127.29
1971,13113.46
1972,13175.49
1973,13109.86
1974,12946.63
1975,12916.49
1976,13045.42
1977,13136.69
1978,13099.93
1979,12995.32
1980,12888.22
1981,12836.09
1982,12849.89
1983,12856.04
1984,12809.62
1985,12749.3
1986,12713.9
1987,12713.02
1988,12740.84
1989,12758.08
1990,12737.81
1991,12724.25
1992,12758.18
1993,12791.15
1994,12762.4
1995,12676.58
1996,12566.9
1997,12510.71
1998,12578.18
1999,12667.31
2000,12625.08
2001,12503.23
2002,12444.18
2003,12474.75
2004,12554.46
2005,12626.03
2006,12626.2
2007,12550.54
2008,12437.07
2009,12331.32
2010,12281.02
2011,12277.59
2012,12267.41
2013,12282.62
2014,12431.18
2015,12630.83
2016,12607.34
2017,12365.16
2018,12228.34
2019,12315.12
2020,12471.61
2021,12557.96
2022,12476.99
2023,12248.06
2024,12048.12
2025,11965.75
2026,11940.87
2027,11945.02
2028,12017.64
2029,12140.88
2030,12193.37
2031,12126.61
2032,12034.66
2033,11969.2
2034,11880.81
2035,11777.21
2036,11791.07
2037,11953.61
2038,12076.54
2039,12053.62
2040,11987.64
2041,11940.22
2042,11843.18
2043,11686.54
2044,11607.56
2045,11664.7
2046,11721.41
2047,11687.4
2048,11613.79
2049,11539.86
2050,11447.02
2051,11349.51
2052,11339.58
2053,11408.28
2054,11332.93
2055,11086.84
2056,11061.95
2057,11368.56
2058,11510.64
2059,11305.19
2060,11244.4
2061,11495.77
2062,11550.86
2063,11232.2
2064,11013.14
2065,11085.88
2066,11111.43
2067,10974.99
2068,10957.53
2069,11116.01
2070,11155.88
2071,10995.53
2072,10861.38
2073,10846.54
2074,10858.74
2075,10863.11
2076,10900.29
2077,10969.01
2078,11019.39
2079,10982.46
2080,10784.24
2081,10548.79
2082,10551.23
2083,10740.33
2084,10821.02
2085,10726.5
2086,10555.72
2087,10399.48
2088,10328.48
2089,10288.5
2090,10179.25
2091,10103.99
2092,10221.43
2093,10358.35
2094,10266.95
2095,10131.76
2096,10205.63
2097,10241.75
2098,9973.898
2099,9772.658
2100,9984.012
2101,10197.36
2102,10033.2
2103,9772.309
2104,9697.944
2105,9754.037
2106,9850.815
2107,9947.215
2108,10009.82
2109,10007.72
2110,9928.576
2111,9789.172
2112,9632.734
2113,9531.069
2114,9492.118
2115,9455.624
2116,9417.735
2117,9424.792
2118,9476.671
2119,9528.546
2120,9439.874
2121,9073.712
2122,8782.678
2123,9012.996
2124,9308.531
2125,9074.945
2126,8744.75
2127,8830.782
2128,8972.223
2129,8835.403
2130,8765.164
2131,8944.612
2132,8917.739
2133,8583.016
2134,8603.869
2135,9052.859
2136,9111.291
2137,8678.338
2138,8455.467
2139,8532.762
2140,8494.351
2141,8332.546
2142,8275.693
2143,8264.883
2144,8154.102
2145,8117.581
2146,8326.89
2147,8444.538
2148,8200.604
2149,7955.377
2150,8004.29
2151,8218.448
2152,8378.162
2153,8220.495
2154,7846.026
2155,7782.897
2156,8032.895
2157,8126.274
2158,8016.038
2159,7927.813
2160,7898.178
2161,7878.662
2162,7872.361
2163,7867.979
2164,7731.349
2165,7418.648
2166,7200.592
2167,7243.49
2168,7423.216
2169,7517.037
2170,7238.925
2171,6793.12
2172,6778.143
2173,7029.616
2174,6973.412
2175,6767.293
2176,6792.748
2177,6897.841
2178,6865.794
2179,6790.823
2180,6788.19
2181,6883.103
2182,6964.02
2183,6755.376
2184,6350.797
2185,6181.949
2186,6211.421
2187,6139.92
2188,6119.861
2189,6375.745
2190,6531.303
2191,6279.474
2192,6012.454
2193,6000.71
2194,6054.419
2195,6081.349
2196,6162.045
2197,6234.961
2198,6142.936
2199,5977.706
2200,5925.521
2201,5971.523
2202,5998.117
2203,5774.098
2204,5317.002
2205,5172.802
2206,5417.135
2207,5480.769
2208,5273.387
2209,5099.46
2210,5040.55
2211,5069.576
2212,5209.481
2213,5414.36
2214,5397.258
2215,5082.589
2216,4832.301
2217,4812.795
2218,4925.883
2219,5006.909
2220,4903.293
2221,4773.968
2222,4793.473
2223,4735.199
2224,4514.83
2225,4534.408
2226,4782.797
2227,4689.287
2228,4316.333
2229,4176.42
2230,4321.542
2231,4560.061
2232,4576.778
2233,4259.679
2234,4018.524
2235,4041.677
2236,4141.73
2237,4229.132
2238,4299.167
2239,4278.572
2240,4111.307
2241,3926.012
2242,3872.169
2243,4041.234
2244,4236.67
2245,3991.87
2246,3592.584
2247,3661.991
2248,3735.193
2249,3314.732
2250,3065.582
2251,3329.148
2252,3540.541
2253,3462.513
2254,3246.749
2255,3047.324
2256,2964.054
2257,2890.131
2258,2787.492
2259,2884.405
2260,3103.304
2261,3008.931
2262,2765.226
2263,2818.835
2264,2946.022
2265,2862.179
2266,2740.116
2267,2726.316
2268,2817.092
2269,2933.923
2270,2962.873
2271,2869.648
2272,2664.884
2273,2401.078
2274,2180.432
2275,2151.547
2276,2192.29
2277,2041.567
2278,1969.207
2279,2219.602
2280,2296.191
2281,2062.233
2282,2104.733
2283,2412.135
2284,2509.626
2285,2243.225
2286,1742.618
2287,1569.515
2288,1811.042
2289,1833.294
2290,1617.931
2291,1547.385
2292,1636.132
2293,1755.378
2294,1742.591
2295,1651.909
2296,1749.462
2297,1809.953
2298,1536.932
2299,1558.974
2300,2039.607
