400,69786.88
401,69608.25
402,69918.57
403,70532.4
404,71239.64
405,71843.02
406,72200.96
407,72188.55
408,71694.14
409,70796.55
410,69721.13
411,68695.23
412,67872.83
413,67266.94
414,66874.35
415,66697.88
416,66772.27
417,67142.75
418,67845.33
419,68757.66
420,69623.25
421,70183.08
422,70264.35
423,69873.8
424,69040.74
425,67854.13
426,66743.33
427,66256.2
428,66895.37
429,68369.8
430,69690.8
431,69854.13
432,68465.61
433,66428.81
434,64809.84
435,64471.29
436,65148.51
437,66182.76
438,66942.77
439,67236.19
440,67247.25
441,67170.9
442,67117.1
443,67023.93
444,66808.83
445,66425.25
446,66013.33
447,65773.5
448,65888.65
449,66282.94
450,66677.25
451,66790.25
452,66533.24
453,66166.74
454,65987.08
455,66189.38
456,66516.04
457,66582.77
458,66050.5
459,65125.31
460,64382.5
461,64393.04
462,65233.04
463,66222.05
464,66618.91
465,65958.79
466,64776.96
467,63834.2
468,63797.04
469,64474.55
470,65205.98
471,65343.98
472,64749.05
473,63899.14
474,63306.91
475,63298.18
476,63686.25
477,64197.61
478,64581.01
479,64728.03
480,64589.58
481,64123.93
482,63426.37
483,62717.3
484,62219.49
485,61999.01
486,61811.88
487,61378.67
488,60537.93
489,59668.24
490,59302.16
491,59904.5
492,61177.58
493,62332.18
494,62588.29
495,61757.22
496,60454.86
497,59351.67
498,58898.11
499,58895.95
500,59027.93
501,59018.91
502,58876.07
503,58725.91
504,58693.5
505,58879.76
506,59364.16
507,60223.12
508,61343.88
509,62264.91
510,62489.39
511,61703.62
512,60326.91
513,58961.45
514,58155.62
515,57977.34
516,58231.87
517,58723.91
518,59291.26
519,59808.18
520,60151.83
521,60266.49
522,60247.45
523,60210.22
524,60230.2
525,60188.96
526,59909.51
527,59241.11
528,58321.71
529,57471.24
530,57002.93
531,56947.09
532,56983.18
533,56770.96
534,56197.66
535,55713.62
536,55852.99
537,56953.85
538,58333.2
539,58976.89
540,57989.77
541,55844.9
542,53912.31
543,53539.43
544,54925.96
545,56830.05
546,57925.98
547,57493.75
548,56289.99
549,55289.68
550,55244.36
551,55799.77
552,56256.54
553,55997.95
554,55279.1
555,54891.27
556,55600.54
557,57291.89
558,58836.22
559,59057.67
560,57502.71
561,55280.25
562,53698.57
563,53698.75
564,54664.84
565,55566.19
566,55493.11
567,54563.7
568,53430.41
569,52726.08
570,52635.5
571,52915.84
572,53309.63
573,53671.5
574,54049.84
575,54512.23
576,55069.71
577,55549.04
578,55740.06
579,55484.7
580,54953.13
581,54444.02
582,54233.29
583,54303.66
584,54427.78
585,54380.01
586,54125.43
587,53870.25
588,53834.37
589,54061.99
590,54200.69
591,53845.29
592,52759.16
593,51410.54
594,50451.01
595,50437.62
596,51187.25
597,52160.19
598,52837.48
599,53052.07
600,52933.05
601,52617.68
602,52219.21
603,51816.67
604,51485.89
605,51265.58
606,51101.34
607,50924.68
608,50707.48
609,50605.19
610,50824.78
611,51523.04
612,52438.3
613,53099.31
614,53062.46
615,52355.13
616,51404.3
617,50642.91
618,50284.58
619,50234.34
620,50374.38
621,50600.52
622,50840.08
623,51025.31
624,51080.04
625,50891.71
626,50338.88
627,49356.72
628,48296.11
629,47692.52
630,48028.87
631,49070
632,50051.95
633,50222.25
634,49478.52
635,48490.48
636,47966.48
637,48247.7
638,48970.91
639,49694.67
640,50091.33
641,50193.04
642,50103.48
643,49913.48
644,49646.39
645,49302.77
646,48893.87
647,48532.76
648,48388.17
649,48615.07
650,49123.8
651,49612.76
652,49780.17
653,49553.77
654,49170.65
655,48887.99
656,48848.84
657,48955.55
658,49080.27
659,49109.09
660,48974.29
661,48618.24
662,48021.22
663,47373.68
664,46937.96
665,46938.39
666,47256
667,47585.99
668,47641.39
669,47440.5
670,47253.9
671,47350.45
672,47716.12
673,47985.5
674,47775.68
675,46995.92
676,46102.48
677,45609.39
678,45815.6
679,46404.63
680,46951.5
681,47105.37
682,46841.43
683,46226.34
684,45350.57
685,44475.68
686,43935.97
687,44028.81
688,44639.43
689,45389.41
690,45909.5
691,46069.01
692,45959.93
693,45682.36
694,45337.18
695,45026.48
696,44851.29
697,44829.61
698,44816.75
699,44649.94
700,44264.58
701,43878.86
702,43760.7
703,44088.59
704,44658.86
705,45165.82
706,45352.41
707,45267.46
708,45081.1
709,44950.92
710,44915.72
711,44946.46
712,45007.94
713,44975.88
714,44654.82
715,43860.48
716,42755.93
717,41891.28
718,41826.45
719,42652.68
720,43737.63
721,44391.86
722,44277.26
723,43810.25
724,43503.34
725,43682.5
726,44111.22
727,44447.64
728,44419.32
729,44048.15
730,43435.37
731,42697.64
732,42049.7
733,41742.7
734,41980.67
735,42558.7
736,43059.47
737,43098.18
738,42717.24
739,42259.41
740,42055.25
741,42087.27
742,42011.83
743,41485.09
744,40547.63
745,39717.22
746,39533.67
747,40160.33
748,41143.07
749,41973.46
750,42337.02
751,42339.86
752,42143.07
753,41862.48
754,41483.39
755,40967.57
756,40324.31
757,39749.12
758,39482.22
759,39693.96
760,40192.17
761,40666.98
762,40856.98
763,40834.59
764,40815.46
765,40990.18
766,41312.43
767,41604.23
768,41696.88
769,41553.53
770,41231.05
771,40791.35
772,40359.04
773,40115.05
774,40232.88
775,40636.83
776,40970.12
777,40869.05
778,40278.32
779,39577.76
780,39175.64
781,39248.27
782,39563.24
783,39848.02
784,39930.63
785,39860.06
786,39714.66
787,39564.63
788,39458.26
789,39439.9
790,39512.24
791,39533.2
792,39329.84
793,38805.39
794,38193.75
795,37818
796,37924.07
797,38343.38
798,38767.4
799,38931.91
800,38866.77
801,38724.19
802,38639.02
803,38599.82
804,38521.2
805,38323.74
806,37994.69
807,37561.86
808,37059.71
809,36607.95
810,36387.93
811,36564.91
812,37008.57
813,37335.48
814,37173.14
815,36558.62
816,35941.37
817,35776.32
818,36178.45
819,36862.34
820,37523.13
821,37959.67
822,38112.78
823,37935.8
824,37508.92
825,37114.81
826,37050.86
827,37392.2
828,37803.6
829,37908.12
830,37525.38
831,36893.91
832,36304.85
833,35953.77
834,35802.46
835,35777.51
836,35812.91
837,35863.04
838,35886.02
839,35853.12
840,35778.04
841,35682.98
842,35593.19
843,35545.55
844,35579.44
845,35699.79
846,35765.61
847,35597.89
848,35094.39
849,34519.04
850,34244.37
851,34546.84
852,35189.68
853,35764.54
854,35926.39
855,35706.92
856,35278.77
857,34807.83
858,34416.74
859,34209.83
860,34268.78
861,34506.85
862,34760.66
863,34881.98
864,34847.76
865,34697.52
866,34474.7
867,34256.6
868,34138.72
869,34201.81
870,34377.04
871,34508.04
872,34456.43
873,34291.88
874,34214.93
875,34403.23
876,34735.01
877,34887.31
878,34565.64
879,33892.53
880,33288.63
881,33150.62
882,33453.49
883,33853.3
884,34018.79
885,33922.88
886,33780.86
887,33798.91
888,33928.94
889,33910.67
890,33498.05
891,32803.65
892,32251.91
893,32253.12
894,32773.88
895,33380.25
896,33642.51
897,33476.97
898,33122.71
899,32823.52
900,32678.38
901,32647.46
902,32683.73
903,32701.67
904,32578
905,32197.39
906,31654.67
907,31254.91
908,31297.12
909,31746.14
910,32227.85
911,32365.35
912,32047.04
913,31433.11
914,30696.86
915,30045.72
916,29722.31
917,29956.34
918,30645.43
919,31344.91
920,31612.17
921,31396.46
922,31049.39
923,30928.12
924,31114.2
925,31408.47
926,31605.18
927,31622.31
928,31502.32
929,31293.08
930,31045.29
931,30812.41
932,30645.91
933,30555.39
934,30509.97
935,30477.93
936,30442.06
937,30398.9
938,30346.07
939,30291.64
940,30253.22
941,30248.33
942,30286.51
943,30370.28
944,30500.91
945,30662.44
946,30824.17
947,30955.17
948,31025.44
949,31005.79
950,30871.67
951,30666.43
952,30486.12
953,30420.43
954,30455.26
955,30500.08
956,30468.56
957,30347.75
958,30175.71
959,29991.44
960,29834.33
961,29743.96
962,29752.98
963,29820.03
964,29858.58
965,29794.16
966,29675.8
967,29622.76
968,29734.3
969,29925.48
970,30014.29
971,29852.37
972,29568.28
973,29424.97
974,29632.37
975,30008.88
976,30198.76
977,29910.88
978,29281.16
979,28618.76
980,28195.37
981,28062.11
982,28188.85
983,28528.52
984,28943.98
985,29268.57
986,29371.04
987,29286.39
988,29098.84
989,28888.51
990,28719.06
991,28649.68
992,28711.97
993,28834.94
994,28923.84
995,28910.3
996,28812.07
997,28664.5
998,28495.49
999,28311.51
1000,28115.17
1001,27916.72
1002,27745.67
1003,27634.42
1004,27602.04
1005,27638.17
1006,27728.54
1007,27853.41
1008,27967.73
1009,28019.28
1010,27975.9
1011,27885.72
1012,27816.81
1013,27814.21
1014,27843.64
1015,27853.8
1016,27813.54
1017,27751.48
1018,27707.2
1019,27701.18
1020,27705.43
1021,27684.53
1022,27620.84
1023,27535.28
1024,27453.71
1025,27398.11
1026,27383.33
1027,27422.96
1028,27501.29
1029,27556.81
1030,27525.56
1031,27399.42
1032,27244.03
1033,27127.8
1034,27058.91
1035,26978.57
1036,26828.57
1037,26630.63
1038,26480.73
1039,26470.29
1040,26582.83
1041,26718.56
1042,26785.95
1043,26809.44
1044,26887.16
1045,27100.47
1046,27375.24
1047,27556.9
1048,27516.08
1049,27297.28
1050,27017.29
1051,26782.19
1052,26641.35
1053,26625.35
1054,26746.26
1055,26940.01
1056,27123.09
1057,27236.52
1058,27299.47
1059,27346.5
1060,27380.97
1061,27329.17
1062,27106.62
1063,26724.99
1064,26380.54
1065,26286.51
1066,26459.91
1067,26624.62
1068,26490.41
1069,26054.64
1070,25648.91
1071,25605.94
1072,25931.33
1073,26335.9
1074,26538.72
1075,26492.46
1076,26311.58
1077,26107.7
1078,25940.36
1079,25841.65
1080,25840.94
1081,25952.02
1082,26182.58
1083,26511.01
1084,26781.68
1085,26800.83
1086,26478.9
1087,26068.96
1088,25893.64
1089,26126.44
1090,26586.83
1091,27043.85
1092,27330.98
1093,27393.15
1094,27188.95
1095,26771.56
1096,26313.98
1097,25990.7
1098,25854.78
1099,25846.77
1100,25903.46
1101,25967.02
1102,25983.25
1103,25908.25
1104,25779.76
1105,25674.63
1106,25654.22
1107,25695.65
1108,25747.85
1109,25770.89
1110,25765.2
1111,25740.37
1112,25696.82
1113,25612.27
1114,25461.6
1115,25268.09
1116,25137.77
1117,25181.35
1118,25404.24
1119,25686.59
1120,25905.25
1121,26001.56
1122,25970.17
1123,25813.26
1124,25591.25
1125,25397.56
1126,25315
1127,25358.88
1128,25518.88
1129,25760.51
1130,25953.94
1131,25946.09
1132,25675.09
1133,25311.79
1134,25062.07
1135,25023.76
1136,25113.38
1137,25231.1
1138,25304.67
1139,25292.67
1140,25161.1
1141,24958.06
1142,24792.8
1143,24763.77
1144,24870.49
1145,25064.45
1146,25279.09
1147,25360.6
1148,25128.61
1149,24530.56
1150,23899.82
1151,23639.83
1152,23907.64
1153,24394.97
1154,24748.52
1155,24830.35
1156,24762.4
1157,24676.95
1158,24629.38
1159,24615.56
1160,24628.19
1161,24646.91
1162,24645
1163,24600.31
1164,24512.46
1165,24387.51
1166,24249.57
1167,24173
1168,24239.86
1169,24464.09
1170,24745.21
1171,24973.74
1172,25087.19
1173,25071.85
1174,24920.14
1175,24668.48
1176,24381.4
1177,24120.75
1178,23929.06
1179,23841.55
1180,23869.82
1181,23943.56
1182,23975.06
1183,23928.88
1184,23874.29
1185,23891.23
1186,24001.32
1187,24156.63
1188,24307.38
1189,24432.63
1190,24531.98
1191,24599.42
1192,24587.87
1193,24433.35
1194,24114.97
1195,23769.58
1196,23569.48
1197,23600.02
1198,23770.09
1199,23967.96
1200,24105.55
1201,24122.43
1202,23970.34
1203,23732.79
1204,23582.43
1205,23658.74
1206,23887.75
1207,24114.79
1208,24217.92
1209,24180.94
1210,24009.47
1211,23761.64
1212,23587.23
1213,23637.53
1214,23891.03
1215,24156.71
1216,24255.47
1217,24187.71
1218,24051.95
1219,23937.5
1220,23886.06
1221,23925.5
1222,24055.52
1223,24208.74
1224,24308.91
1225,24317.55
1226,24244.79
1227,24105.13
1228,23929.18
1229,23758.87
1230,23633.56
1231,23575.71
1232,23601.52
1233,23710.21
1234,23850.83
1235,23963.62
1236,24015.65
1237,24014.96
1238,23973.02
1239,23900.09
1240,23805.44
1241,23701.43
1242,23621.7
1243,23608.91
1244,23683.87
1245,23795.14
1246,23876.79
1247,23891.74
1248,23850.27
1249,23767.98
1250,23675.15
1251,23614.71
1252,23623.13
1253,23688.37
1254,23777.27
1255,23853.85
1256,23873.11
1257,23789.12
1258,23619.68
1259,23484.26
1260,23502.18
1261,23641.38
1262,23747.35
1263,23693.18
1264,23554.3
1265,23486.59
1266,23582.37
1267,23747.14
1268,23854.08
1269,23856.23
1270,23818.54
1271,23809.52
1272,23834.88
1273,23856.76
1274,23838.51
1275,23754.38
1276,23582.42
1277,23349.09
1278,23194.21
1279,23268.12
1280,23554.59
1281,23851.64
1282,23965.88
1283,23874.35
1284,23645.29
1285,23362.21
1286,23162.96
1287,23196.97
1288,23484.29
1289,23824.5
1290,24005.29
1291,23974.3
1292,23807.99
1293,23587.41
1294,23398.39
1295,23328.49
1296,23418.71
1297,23593.26
1298,23759.41
1299,23858.61
1300,23871.18
1301,23788.79
1302,23685.27
1303,23677.37
1304,23821.01
1305,23955.69
1306,23876.04
1307,23559.61
1308,23262.09
1309,23240.55
1310,23466.46
1311,23714.41
1312,23802.41
1313,23773.17
1314,23735.21
1315,23750.53
1316,23790.86
1317,23819.25
1318,23828.54
1319,23837.09
1320,23860.8
1321,23895.85
1322,23931.18
1323,23957.89
1324,23972.24
1325,23971.5
1326,23961
1327,23954.1
1328,23962.65
1329,23985.13
1330,24014.31
1331,24042.61
1332,24061.53
1333,24062.91
1334,24053.02
1335,24054.18
1336,24085.4
1337,24133.32
1338,24169.33
1339,24176.27
1340,24170.37
1341,24173.28
1342,24188.2
1343,24196.79
1344,24183.7
1345,24168.12
1346,24185.99
1347,24250.01
1348,24304.6
1349,24283.79
1350,24187.36
1351,24091.55
1352,24064.99
1353,24081.13
1354,24068.53
1355,23992.97
1356,23924.84
1357,23949.58
1358,24066.22
1359,24179.29
1360,24203.34
1361,24160.12
1362,24117.83
1363,24118.69
1364,24139.21
1365,24147.93
1366,24160.66
1367,24239.22
1368,24427.68
1369,24650.19
1370,24786.21
1371,24780.66
1372,24717.48
1373,24693.21
1374,24715.21
1375,24717.72
1376,24656
1377,24598.07
1378,24645.22
1379,24813.47
1380,24973.43
1381,24993.89
1382,24893.41
1383,24788.34
1384,24765.15
1385,24793.89
1386,24818.25
1387,24797.36
1388,24710.5
1389,24548.73
1390,24388.32
1391,24347.09
1392,24474.91
1393,24642.88
1394,24698.81
1395,24615.13
1396,24482.58
1397,24385.42
1398,24346.35
1399,24367.06
1400,24427.72
1401,24470.05
1402,24438.17
1403,24353.52
1404,24288.11
1405,24292.18
1406,24337.34
1407,24378.55
1408,24384.82
1409,24341.76
1410,24243.29
1411,24133.47
1412,24077.15
1413,24109.58
1414,24202.99
1415,24321.63
1416,24432.29
1417,24503.6
1418,24517.31
1419,24506.04
1420,24514.04
1421,24557.24
1422,24615.7
1423,24665.53
1424,24671.93
1425,24595.51
1426,24438.11
1427,24289.73
1428,24245.69
1429,24314.65
1430,24442.38
1431,24574.41
1432,24661.08
1433,24655.7
1434,24573.68
1435,24502.7
1436,24518.53
1437,24596.43
1438,24673.25
1439,24707.51
1440,24697.82
1441,24649.51
1442,24594.3
1443,24579.97
1444,24629.51
1445,24693.36
1446,24711.88
1447,24687.33
1448,24678.98
1449,24730.77
1450,24806.47
1451,24847.93
1452,24839.33
1453,24822.27
1454,24834.17
1455,24853.16
1456,24832.02
1457,24765.29
1458,24729.75
1459,24802.31
1460,24951.03
1461,25076.16
1462,25111.41
1463,25088.95
1464,25057.19
1465,25042.52
1466,25052.26
1467,25090.54
1468,25151.14
1469,25224.57
1470,25283.19
1471,25278.1
1472,25178.4
1473,25062.78
1474,25047.21
1475,25154.81
1476,25264.37
1477,25261.33
1478,25183.35
1479,25139.34
1480,25180.71
1481,25241.52
1482,25249.71
1483,25221.21
1484,25225.23
1485,25292.43
1486,25351.52
1487,25320.87
1488,25208.7
1489,25091.16
1490,25030.1
1491,25034.53
1492,25100.68
1493,25182.79
1494,25196.58
1495,25091.93
1496,24962.1
1497,24932.79
1498,25026.71
1499,25154.43
1500,25235.08
1501,25257.69
1502,25232.81
1503,25194.19
1504,25204.72
1505,25309.06
1506,25438.01
1507,25483.93
1508,25415.08
1509,25307.88
1510,25240.28
1511,25245.17
1512,25337.08
1513,25487.25
1514,25599.01
1515,25589.18
1516,25515.42
1517,25495.47
1518,25567.23
1519,25632.46
1520,25597.67
1521,25509.54
1522,25479.02
1523,25549.8
1524,25644.46
1525,25682.35
1526,25660.23
1527,25612.19
1528,25573.52
1529,25581.23
1530,25663.78
1531,25777.03
1532,25841.71
1533,25830.14
1534,25810.2
1535,25850.97
1536,25945.78
1537,26051.27
1538,26128.24
1539,26145.57
1540,26079.98
1541,25963.32
1542,25853.18
1543,25797.13
1544,25825.05
1545,25953.53
1546,26115.05
1547,26205.86
1548,26187.96
1549,26129.02
1550,26097.92
1551,26107.67
1552,26148.53
1553,26198.12
1554,26215.86
1555,26171.68
1556,26105.94
1557,26082.96
1558,26112.8
1559,26135.15
1560,26105.28
1561,26080.19
1562,26145.41
1563,26292.87
1564,26409.12
1565,26407.48
1566,26338.23
1567,26286.13
1568,26304.39
1569,26416.1
1570,26615.01
1571,26798.76
1572,26851.92
1573,26781.09
1574,26689.48
1575,26647.06
1576,26625.14
1577,26584.62
1578,26558.81
1579,26627.05
1580,26805.92
1581,26975.85
1582,27018.38
1583,26976.29
1584,26972.12
1585,27054.63
1586,27149.22
1587,27185.16
1588,27187.88
1589,27217.63
1590,27276.73
1591,27294.44
1592,27227.93
1593,27178.39
1594,27279.38
1595,27507.43
1596,27691.85
1597,27722.19
1598,27694.28
1599,27733.66
1600,27833.22
1601,27895.84
1602,27875
1603,27837.75
1604,27855.43
1605,27913.55
1606,27957.2
1607,27965.15
1608,27967.02
1609,27991.04
1610,28035.97
1611,28091.41
1612,28151.5
1613,28215.09
1614,28283.88
1615,28368.13
1616,28475.29
1617,28554.42
1618,28514.78
1619,28335.91
1620,28145.94
1621,28069.72
1622,28069.57
1623,28037.63
1624,27933.61
1625,27807.9
1626,27708.57
1627,27646.15
1628,27620.15
1629,27613.45
1630,27594.88
1631,27548.55
1632,27498.2
1633,27470.96
1634,27468.75
1635,27480.51
1636,27489.3
1637,27469.65
1638,27409.56
1639,27364.07
1640,27402.74
1641,27491.37
1642,27503.42
1643,27381.19
1644,27254.42
1645,27261.67
1646,27354.22
1647,27389.13
1648,27320.43
1649,27243.99
1650,27243.87
1651,27301.74
1652,27372.32
1653,27431.3
1654,27471.39
1655,27481.21
1656,27439.12
1657,27333.13
1658,27230.91
1659,27232.14
1660,27333.69
1661,27407.69
1662,27371.68
1663,27327.97
1664,27405.45
1665,27573.78
1666,27701.32
1667,27718.68
1668,27666.71
1669,27596.01
1670,27550.32
1671,27568.69
1672,27639.32
1673,27706.01
1674,27730.62
1675,27721.17
1676,27692.21
1677,27657.41
1678,27629.85
1679,27615.58
1680,27612.69
1681,27614.61
1682,27601.82
1683,27555.96
1684,27492.43
1685,27444.85
1686,27437.74
1687,27482.57
1688,27577.09
1689,27670.65
1690,27707.53
1691,27708.28
1692,27742.23
1693,27827.55
1694,27897.64
1695,27894.6
1696,27834.39
1697,27754.19
1698,27700.78
1699,27727.47
1700,27835.07
1701,27929.04
1702,27926.46
1703,27851.57
1704,27760.62
1705,27700.67
1706,27711.22
1707,27789.41
1708,27852.11
1709,27832.61
1710,27794.06
1711,27833.13
1712,27927.99
1713,27963.57
1714,27902.56
1715,27860.25
1716,27933.95
1717,28046.55
1718,28074.7
1719,28008.58
1720,27924.72
1721,27874.85
1722,27862.23
1723,27884.4
1724,27935.37
1725,28007.78
1726,28089.28
1727,28163.96
1728,28207.36
1729,28181.69
1730,28067.73
1731,27924.12
1732,27824.67
1733,27798.26
1734,27846.33
1735,27949.03
1736,28058.07
1737,28134.45
1738,28176.01
1739,28185.98
1740,28151.5
1741,28053.81
1742,27931.68
1743,27887.11
1744,27970.46
1745,28094.74
1746,28165
1747,28167.68
1748,28121.06
1749,28064.73
1750,28055.92
1751,28110.63
1752,28167.52
1753,28173.46
1754,28147.25
1755,28125.56
1756,28127.48
1757,28160.95
1758,28217.26
1759,28266.12
1760,28283.82
1761,28270.29
1762,28231.68
1763,28187.8
1764,28164.08
1765,28182.88
1766,28263.39
1767,28378.5
1768,28414.55
1769,28298.3
1770,28166.93
1771,28188.75
1772,28288.54
1773,28257.11
1774,28088.95
1775,28021.28
1776,28172.32
1777,28331.21
1778,28290.97
1779,28142.89
1780,28070.34
1781,28123.84
1782,28258.2
1783,28388.68
1784,28377.1
1785,28168.46
1786,27966.32
1787,27976.57
1788,28107.73
1789,28161.3
1790,28127.46
1791,28146.93
1792,28269.79
1793,28396.39
1794,28445.04
1795,28434.69
1796,28403.08
1797,28378.31
1798,28382.17
1799,28397.1
1800,28373.88
1801,28311.16
1802,28284.96
1803,28344.61
1804,28433.54
1805,28484.17
1806,28493.91
1807,28484.77
1808,28456.13
1809,28390.45
1810,28303.27
1811,28258.7
1812,28294.57
1813,28364.79
1814,28416.76
1815,28443.19
1816,28451.81
1817,28442.12
1818,28408.72
1819,28362.63
1820,28334.85
1821,28334.57
1822,28319.6
1823,28264.55
1824,28246.97
1825,28354.18
1826,28515.7
1827,28586.14
1828,28544.83
1829,28486.54
1830,28473.26
1831,28505.51
1832,28558.47
1833,28548.33
1834,28410.51
1835,28256.12
1836,28241.9
1837,28323.29
1838,28331.37
1839,28243.21
1840,28200.84
1841,28271.01
1842,28356.86
1843,28372.66
1844,28338.49
1845,28292.74
1846,28241.91
1847,28183.57
1848,28164.5
1849,28261.55
1850,28421.66
1851,28439.73
1852,28247.19
1853,28063.97
1854,28072.06
1855,28201.55
1856,28335.77
1857,28408.75
1858,28379.3
1859,28270.94
1860,28149.18
1861,28075.25
1862,28104.04
1863,28211.98
1864,28238.88
1865,28104.46
1866,28003.59
1867,28111.64
1868,28249.84
1869,28164.87
1870,27938.35
1871,27818.4
1872,27884.5
1873,28071.64
1874,28281.1
1875,28375.77
1876,28295.73
1877,28152.27
1878,28056.13
1879,28037.89
1880,28100.91
1881,28191.66
1882,28241.82
1883,28242.85
1884,28219.86
1885,28183.05
1886,28129.23
1887,28071.55
1888,28045.92
1889,28065.37
1890,28091.13
1891,28088.34
1892,28057.39
1893,28006.48
1894,27946.52
1895,27890.5
1896,27861.4
1897,27884.24
1898,27937.66
1899,27966.16
1900,27963.78
1901,27981.66
1902,28034.58
1903,28070.76
1904,28050.06
1905,27978.19
1906,27874.2
1907,27781.15
1908,27738.75
1909,27732.26
1910,27731.15
1911,27742.85
1912,27790.92
1913,27832.47
1914,27776.95
1915,27651.46
1916,27612.98
1917,27696.69
1918,27735.68
1919,27637.36
1920,27516.35
1921,27476.88
1922,27496.54
1923,27535.19
1924,27590.86
1925,27666.29
1926,27718.63
1927,27694.1
1928,27628.45
1929,27605.35
1930,27619.83
1931,27595.64
1932,27510.78
1933,27405.85
1934,27315.73
1935,27261.56
1936,27259.26
1937,27316.2
1938,27420.36
1939,27508.13
1940,27524.28
1941,27482.11
1942,27408.38
1943,27312.51
1944,27207.18
1945,27172.12
1946,27292.39
1947,27388.95
1948,27154.15
1949,26742.4
1950,26651.92
1951,26909.16
1952,27060.32
1953,26964.09
1954,26913.5
1955,27030.44
1956,27100.53
1957,27013.63
1958,26955.01
1959,27032.65
1960,27030.39
1961,26797.07
1962,26621.31
1963,26774.94
1964,26981.91
1965,26888.25
1966,26642.95
1967,26546.29
1968,26605.98
1969,26693.41
1970,26699.3
1971,26539.84
1972,26320.06
1973,26268.58
1974,26380.69
1975,26449.32
1976,26406.08
1977,26336.64
1978,26281
1979,26211.72
1980,26149.87
1981,26196.8
1982,26349.42
1983,26399.67
1984,26248.57
1985,26087.07
1986,26063.57
1987,26111.4
1988,26135.04
1989,26059.04
1990,25866.81
1991,25747.62
1992,25872.18
1993,26113.68
1994,26281.18
1995,26281.28
1996,26086.96
1997,25884.8
1998,25893.38
1999,25977.88
2000,25886.8
2001,25687.39
2002,25586.19
2003,25591.69
2004,25608.39
2005,25639.71
2006,25741.43
2007,25818.22
2008,25683.48
2009,25414.12
2010,25284.65
2011,25345.7
2012,25448.4
2013,25454.47
2014,25250.99
2015,24945.47
2016,24864.25
2017,25042.52
2018,25179.75
2019,25165.22
2020,25139.36
2021,25135.05
2022,25026.95
2023,24817.09
2024,24698.57
2025,24737.47
2026,24790.69
2027,24780.91
2028,24760.69
2029,24747.26
2030,24681.34
2031,24551.44
2032,24440.79
2033,24396.17
2034,24382
2035,24383.62
2036,24440.74
2037,24537.97
2038,24543.69
2039,24387.23
2040,24143.2
2041,23917.43
2042,23842.91
2043,23924.76
2044,23905.32
2045,23690.58
2046,23580.47
2047,23716.61
2048,23824.64
2049,23743.12
2050,23638.56
2051,23607.41
2052,23529.52
2053,23383.15
2054,23386.93
2055,23573.66
2056,23570.82
2057,23240.83
2058,22964.82
2059,22944.17
2060,22957.81
2061,22862.04
2062,22722.69
2063,22626.01
2064,22656.15
2065,22803.23
2066,22911.2
2067,22866.07
2068,22638.09
2069,22324.9
2070,22186.82
2071,22277.5
2072,22368.03
2073,22336.16
2074,22213.73
2075,22067.56
2076,21990.85
2077,22011.71
2078,22088.62
2079,22168.91
2080,22192.94
2081,22112.04
2082,21895.72
2083,21642.46
2084,21537.29
2085,21571.39
2086,21601.88
2087,21543.63
2088,21369.08
2089,21236.69
2090,21357.82
2091,21511.03
2092,21323.58
2093,20889.59
2094,20497.52
2095,20373.88
2096,20629.74
2097,20895.23
2098,20781.36
2099,20511.49
2100,20383.05
2101,20332.92
2102,20263.25
2103,20233.48
2104,20279.27
2105,20291.35
2106,20209.52
2107,20134.67
2108,20076.11
2109,19836.24
2110,19447.29
2111,19324.88
2112,19520.89
2113,19584.6
2114,19418.8
2115,19331.68
2116,19379.98
2117,19387.04
2118,19311.54
2119,19210.39
2120,19061.54
2121,18819.86
2122,18647.76
2123,18736.43
2124,18825.77
2125,18607.73
2126,18390.39
2127,18503.99
2128,18656.36
2129,18565.92
2130,18409.77
2131,18324.05
2132,18165.97
2133,17908.85
2134,17793.04
2135,17851.84
2136,17805.04
2137,17590.12
2138,17396.42
2139,17315.86
2140,17341.48
2141,17379.53
2142,17298.61
2143,17099.77
2144,16857.46
2145,16696.33
2146,16721.22
2147,16874.25
2148,17024.12
2149,16947.96
2150,16561.55
2151,16133.93
2152,15869.1
2153,15779.66
2154,15827.73
2155,15932.2
2156,15952
2157,15720.7
2158,15405.22
2159,15346.27
2160,15468.87
2161,15523.3
2162,15421.91
2163,15182.58
2164,15011.32
2165,15021.61
2166,14965.82
2167,14755.5
2168,14697.44
2169,14807.91
2170,14690.17
2171,14399.43
2172,14386.72
2173,14521.03
2174,14357.27
2175,14015.23
2176,13806.4
2177,13722.96
2178,13680.17
2179,13657.51
2180,13590.81
2181,13302.38
2182,12918.01
2183,12992.49
2184,13417.14
2185,13459.3
2186,13154.38
2187,12999.93
2188,12982.51
2189,12912.65
2190,12853.67
2191,12849.15
2192,12676.75
2193,12281.01
2194,12000.71
2195,11938.94
2196,11868.18
2197,11748.16
2198,11682.03
2199,11554.92
2200,11224.21
2201,11019.22
2202,11207.71
2203,11357.9
2204,11203.46
2205,11084.53
2206,11182.45
2207,11378.46
2208,11424.97
2209,11044.87
2210,10467.46
2211,10113.59
2212,10075.93
2213,10258.94
2214,10318.53
2215,10118.32
2216,9954.636
2217,9902.557
2218,9773.544
2219,9653.928
2220,9764.285
2221,9946.281
2222,9958.969
2223,9820.992
2224,9571.755
2225,9172.093
2226,8728.631
2227,8529.159
2228,8621.423
2229,8845.709
2230,8932.981
2231,8678.4
2232,8327.076
2233,8130.387
2234,8094.301
2235,8108.301
2236,7973.118
2237,7778.464
2238,7790.578
2239,7915.515
2240,7920.868
2241,7660.236
2242,7204.645
2243,7020.723
2244,7163.717
2245,7176.858
2246,6994.362
2247,6810.378
2248,6675.398
2249,6582.713
2250,6519.631
2251,6490.475
2252,6524.639
2253,6541.096
2254,6381.888
2255,6141.706
2256,6001.641
2257,5942.985
2258,5904.675
2259,5853.437
2260,5801.768
2261,5805.03
2262,5831.072
2263,5800.161
2264,5694.486
2265,5541.694
2266,5432.569
2267,5374.165
2268,5250.767
2269,5090.233
2270,5009.147
2271,4957.136
2272,4850.918
2273,4707.6
2274,4569.543
2275,4481.659
2276,4377.635
2277,4138.073
2278,3880.834
2279,3776.859
2280,3860.02
2281,4091.746
2282,4356.153
2283,4427.052
2284,4112.866
2285,3944.041
2286,4266.4
2287,4118.153
2288,3406.274
2289,3452.53
2290,4021.512
2291,3964.818
2292,3493.919
2293,3147.857
2294,3124.418
2295,3315.542
2296,3341.918
2297,3114.59
2298,2784.971
2299,2767.928
2300,3101.078
