400,59901.5
401,59868.07
402,59880.39
403,59914.29
404,59943.97
405,59947.16
406,59917.59
407,59853.66
408,59754.34
409,59626.57
410,59483.55
411,59338.49
412,59201.83
413,59078.54
414,58973
415,58892.09
416,58856.19
417,58890.12
418,59015.18
419,59193.64
420,59337.73
421,59358.78
422,59217.44
423,58977.36
424,58714.88
425,58500.87
426,58376.54
427,58372.57
428,58514.56
429,58737.3
430,58895.74
431,58843.33
432,58530.45
433,58113.69
434,57775.39
435,57663.44
436,57734.89
437,57880.05
438,57993.39
439,58034.85
440,58020.54
441,57968.3
442,57890.51
443,57788.52
444,57662.37
445,57515.51
446,57369.38
447,57251.21
448,57185.48
449,57155.7
450,57113.22
451,57009.18
452,56832.38
453,56640.12
454,56496.63
455,56445.31
456,56436.23
457,56393.34
458,56248.64
459,56030.84
460,55834.2
461,55752.31
462,55798.8
463,55864.88
464,55831.96
465,55624.73
466,55324.53
467,55048.02
468,54898.91
469,54863.51
470,54863.76
471,54822.89
472,54716.07
473,54581.66
474,54461.64
475,54385.04
476,54345.39
477,54330.2
478,54324.93
479,54300.93
480,54223.75
481,54061.73
482,53835.12
483,53611.57
484,53459.73
485,53398
486,53345.21
487,53208.77
488,52931.25
489,52615.65
490,52410.77
491,52448.27
492,52667.86
493,52885.43
494,52918.68
495,52713.03
496,52387.73
497,52073.88
498,51864.57
499,51741.02
500,51663.82
501,51597.97
502,51537.61
503,51489.22
504,51459.36
505,51455.09
506,51483.96
507,51553.23
508,51644.68
509,51693.05
510,51628.38
511,51408.1
512,51099.83
513,50798.55
514,50590.11
515,50478.38
516,50422.35
517,50381.46
518,50333.52
519,50276.66
520,50210.11
521,50134.75
522,50055.25
523,49976.75
524,49900.48
525,49808.47
526,49677.02
527,49486.41
528,49261.37
529,49054.65
530,48917.77
531,48853.04
532,48801.75
533,48701.8
534,48530.39
535,48362.1
536,48286.03
537,48360.1
538,48480.12
539,48489.32
540,48249.6
541,47837.68
542,47471.11
543,47363.63
544,47539.84
545,47786.73
546,47877.51
547,47691.59
548,47367.21
549,47080.89
550,46970.34
551,46981.51
552,47000.46
553,46925.96
554,46790.59
555,46709.27
556,46793.05
557,47017.66
558,47203.02
559,47161.96
560,46826.88
561,46388.76
562,46071.56
563,46032.67
564,46147.01
565,46214.32
566,46059.98
567,45728.36
568,45377.57
569,45160.46
570,45113.3
571,45161.08
572,45225.1
573,45259.51
574,45275.34
575,45289.21
576,45305.68
577,45289.91
578,45199.16
579,45003.88
580,44757.71
581,44546.88
582,44450.03
583,44447.7
584,44450.16
585,44368.68
586,44191.38
587,44003.54
588,43896.05
589,43902.79
590,43929.25
591,43863.76
592,43632.9
593,43323.05
594,43062.24
595,42961.7
596,43001.57
597,43098.79
598,43172.48
599,43179.32
600,43107.59
601,42947.26
602,42719.27
603,42489.24
604,42325.84
605,42261.81
606,42239.84
607,42188.95
608,42061.02
609,41911.19
610,41823.73
611,41868.84
612,42000.62
613,42114.94
614,42113.12
615,41990.22
616,41820.91
617,41680.92
618,41596.66
619,41524.97
620,41417.75
621,41256.18
622,41090.77
623,40981.92
624,40965.05
625,40972.59
626,40910.5
627,40704.24
628,40419.87
629,40186.09
630,40121.31
631,40203.28
632,40306.08
633,40305.1
634,40176.34
635,40015.29
636,39923.41
637,39942.14
638,39997.71
639,40003.59
640,39903.89
641,39739.9
642,39572.05
643,39450.73
644,39372.86
645,39317.39
646,39264.93
647,39210.94
648,39159.04
649,39112.54
650,39068.02
651,39016.23
652,38947.89
653,38860.97
654,38763.15
655,38662.75
656,38567.73
657,38485.38
658,38422.89
659,38380.58
660,38335.52
661,38259.94
662,38134.67
663,37988
664,37864.49
665,37802.49
666,37784.46
667,37762.63
668,37692.26
669,37581.73
670,37483.23
671,37448.36
672,37470.29
673,37469.6
674,37363.33
675,37133.77
676,36885.4
677,36735.62
678,36748.83
679,36837.74
680,36888.39
681,36814.32
682,36651
683,36467.88
684,36326.54
685,36234.5
686,36176.04
687,36135.37
688,36095.84
689,36040.31
690,35952.8
691,35839.53
692,35727.42
693,35643.59
694,35593.78
695,35554.97
696,35502.33
697,35422.52
698,35324.7
699,35220.62
700,35122.92
701,35046.96
702,35008.52
703,35014.04
704,35029.98
705,35012.1
706,34925.2
707,34791.07
708,34654.07
709,34554.9
710,34499.8
711,34475.3
712,34467.17
713,34451.05
714,34394.54
715,34266.85
716,34084.84
717,33918.5
718,33839.29
719,33859.43
720,33899.82
721,33874.14
722,33744.39
723,33576.43
724,33449.29
725,33414.38
726,33439.77
727,33477.91
728,33486.07
729,33441.58
730,33327.22
731,33135.7
732,32920.2
733,32756.63
734,32709.58
735,32745.54
736,32780.06
737,32734.85
738,32613.73
739,32478.22
740,32388.14
741,32348.35
742,32312.28
743,32232.78
744,32105.63
745,31979.88
746,31907.16
747,31904.01
748,31929.35
749,31937.06
750,31900.61
751,31836.1
752,31765.16
753,31701.18
754,31633.73
755,31548.13
756,31438.58
757,31333.91
758,31271.37
759,31276.82
760,31317.29
761,31340.7
762,31302.84
763,31213.51
764,31105.68
765,31010.02
766,30935.52
767,30879.07
768,30836.8
769,30795.69
770,30736.27
771,30640.6
772,30520.53
773,30414.7
774,30361.08
775,30355.88
776,30348.26
777,30286.06
778,30164.78
779,30047.14
780,30000.06
781,30038.73
782,30087.13
783,30060.47
784,29923.16
785,29747.88
786,29621.42
787,29594.23
788,29616.5
789,29621.44
790,29562.33
791,29461.66
792,29356.88
793,29277.7
794,29220.9
795,29174.22
796,29126.17
797,29069.09
798,28996.61
799,28905.02
800,28808.54
801,28728.77
802,28684
803,28664.45
804,28646.22
805,28606.74
806,28538.03
807,28440.95
808,28318.09
809,28193.54
810,28107.01
811,28095.1
812,28136.71
813,28161.3
814,28100.11
815,27956.9
816,27808.41
817,27732.29
818,27742.92
819,27780.18
820,27780.81
821,27720.69
822,27629.36
823,27539.92
824,27470.94
825,27417.85
826,27374.06
827,27334.44
828,27296.53
829,27258.14
830,27214.65
831,27156.07
832,27071.86
833,26963.66
834,26863.24
835,26806.76
836,26808.53
837,26821.12
838,26786.45
839,26671.48
840,26524.26
841,26409.14
842,26369.97
843,26375.07
844,26375.35
845,26332.1
846,26249.98
847,26145.14
848,26034.49
849,25939.07
850,25881.07
851,25875.75
852,25901.37
853,25923.83
854,25914.28
855,25875.19
856,25820.69
857,25763.63
858,25708.05
859,25654.31
860,25603.02
861,25556.64
862,25518.52
863,25490.88
864,25466.97
865,25435.55
866,25386.23
867,25316.16
868,25226.65
869,25120.68
870,25018.2
871,24949.04
872,24939.45
873,24975
874,25015.65
875,25023.27
876,24986.23
877,24910.75
878,24804.58
879,24692.14
880,24609.73
881,24590.66
882,24622.52
883,24658.32
884,24653.12
885,24604.8
886,24545.35
887,24505.67
888,24484.09
889,24451.79
890,24381.47
891,24286.85
892,24217.35
893,24220.22
894,24281.73
895,24333.1
896,24306.98
897,24200.95
898,24073.11
899,23981.59
900,23939.91
901,23918.79
902,23888.43
903,23842.96
904,23800.02
905,23777.32
906,23772.33
907,23762.28
908,23724.67
909,23661.15
910,23597.96
911,23561.11
912,23546.82
913,23520.79
914,23449.05
915,23335.81
916,23224.62
917,23159.17
918,23146.63
919,23156.57
920,23157.52
921,23132.4
922,23078.93
923,22996.04
924,22894.88
925,22799.11
926,22731.93
927,22695.01
928,22668.43
929,22632.1
930,22582.81
931,22534.06
932,22499.1
933,22471.53
934,22425.98
935,22338.34
936,22225.29
937,22142.03
938,22141.84
939,22214.36
940,22291.04
941,22304.47
942,22244.07
943,22149.49
944,22060.84
945,21998.25
946,21964.9
947,21962.23
948,21973.12
949,21965.29
950,21908.77
951,21813.27
952,21719.25
953,21665.17
954,21651.56
955,21651.04
956,21637.38
957,21606.45
958,21569.51
959,21537.76
960,21518.66
961,21517.24
962,21536.39
963,21556.4
964,21543.79
965,21470.44
966,21362.24
967,21275.85
968,21260.65
969,21299.07
970,21338.3
971,21331.72
972,21285.13
973,21229.72
974,21192.76
975,21171.84
976,21151.39
977,21117.02
978,21062.69
979,20985.7
980,20887.58
981,20794.76
982,20742.76
983,20756.79
984,20807.35
985,20846.86
986,20838.07
987,20792.07
988,20734.27
989,20686.27
990,20653.93
991,20638.93
992,20638.8
993,20635.44
994,20607.18
995,20542.18
996,20460.95
997,20390.52
998,20346.14
999,20309.05
1000,20254.46
1001,20172.54
1002,20091.24
1003,20044.22
1004,20048.27
1005,20082.69
1006,20121.83
1007,20143.58
1008,20141.78
1009,20114.91
1010,20064.18
1011,20001.68
1012,19942.25
1013,19897.96
1014,19871.46
1015,19863.38
1016,19871.73
1017,19886.82
1018,19897.54
1019,19894.35
1020,19871.59
1021,19824.26
1022,19756.5
1023,19692.15
1024,19657.43
1025,19659.91
1026,19672.8
1027,19666.08
1028,19632.21
1029,19598.86
1030,19596.01
1031,19624.93
1032,19648.95
1033,19630.12
1034,19564.67
1035,19486.85
1036,19431.46
1037,19406.47
1038,19394.9
1039,19379.71
1040,19356.36
1041,19330.02
1042,19305.67
1043,19283.6
1044,19261.14
1045,19236.68
1046,19218.28
1047,19219.04
1048,19248.25
1049,19289.24
1050,19314.58
1051,19303.3
1052,19268.59
1053,19234.88
1054,19219.47
1055,19210.29
1056,19187.74
1057,19141.67
1058,19092.05
1059,19064.72
1060,19073.42
1061,19101.82
1062,19129.16
1063,19141.69
1064,19139.07
1065,19122.53
1066,19093.8
1067,19055.45
1068,19010.38
1069,18970.93
1070,18960.41
1071,19000.81
1072,19078.14
1073,19145.98
1074,19160.96
1075,19132.25
1076,19105.44
1077,19122.31
1078,19184.98
1079,19274.68
1080,19373.68
1081,19471.55
1082,19560.74
1083,19633.86
1084,19683.94
1085,19704.21
1086,19695.01
1087,19680.09
1088,19687.94
1089,19729.87
1090,19776.36
1091,19792.24
1092,19761.53
1093,19701.5
1094,19632.42
1095,19563.94
1096,19492.31
1097,19413.23
1098,19328.41
1099,19245.16
1100,19170.07
1101,19098.65
1102,19018.9
1103,18922.02
1104,18825.77
1105,18760.64
1106,18749.83
1107,18777.17
1108,18813.33
1109,18835.34
1110,18843.31
1111,18842.58
1112,18837.26
1113,18828.3
1114,18816.22
1115,18803.43
1116,18795.52
1117,18798.21
1118,18810.05
1119,18821.17
1120,18821.44
1121,18805.09
1122,18769.98
1123,18714.4
1124,18639.99
1125,18550.31
1126,18451.32
1127,18363.88
1128,18314.49
1129,18315.9
1130,18326.33
1131,18290.66
1132,18181.12
1133,18039.61
1134,17918.66
1135,17846.77
1136,17812.09
1137,17798.92
1138,17791.97
1139,17776.37
1140,17738.86
1141,17688.53
1142,17651.12
1143,17649.46
1144,17679.62
1145,17724.65
1146,17766.96
1147,17786.03
1148,17760.49
1149,17683.38
1150,17591.3
1151,17528.78
1152,17514.38
1153,17517.69
1154,17503.61
1155,17461.76
1156,17411.58
1157,17373.22
1158,17350.59
1159,17335.01
1160,17318.39
1161,17299.77
1162,17281.64
1163,17265.91
1164,17251.53
1165,17236.56
1166,17220.57
1167,17207.34
1168,17201.27
1169,17202.38
1170,17203.24
1171,17195.99
1172,17178.64
1173,17155.39
1174,17130.42
1175,17104.85
1176,17077.83
1177,17048.83
1178,17019.32
1179,16991.58
1180,16966.51
1181,16940.14
1182,16907.55
1183,16870.8
1184,16846.03
1185,16850.4
1186,16880.16
1187,16906.61
1188,16901.67
1189,16864.78
1190,16814.99
1191,16769.59
1192,16731.28
1193,16696.73
1194,16664.48
1195,16640.11
1196,16630.73
1197,16638.72
1198,16656.76
1199,16676.29
1200,16686
1201,16671.37
1202,16620.07
1203,16548.79
1204,16493.93
1205,16485.48
1206,16512
1207,16546.4
1208,16565.52
1209,16558.97
1210,16519.14
1211,16456.39
1212,16412.44
1213,16430.06
1214,16504.5
1215,16584.37
1216,16621.52
1217,16616.57
1218,16596.82
1219,16583.67
1220,16569.76
1221,16539.46
1222,16493.39
1223,16470.88
1224,16515.56
1225,16618.62
1226,16703.88
1227,16697.49
1228,16614.93
1229,16534.51
1230,16521.72
1231,16556.89
1232,16588.8
1233,16583.54
1234,16558.62
1235,16540.72
1236,16541.74
1237,16550.79
1238,16555.63
1239,16552.52
1240,16544.62
1241,16534.69
1242,16521.06
1243,16500.21
1244,16472.72
1245,16452.68
1246,16456.75
1247,16484.56
1248,16507.77
1249,16497.34
1250,16458.07
1251,16423.69
1252,16423.67
1253,16450.62
1254,16481.15
1255,16497.58
1256,16501.12
1257,16496.85
1258,16489.89
1259,16485.34
1260,16487.98
1261,16497.23
1262,16508.15
1263,16515.71
1264,16515.07
1265,16501.45
1266,16475.34
1267,16452.55
1268,16451.42
1269,16474.84
1270,16504.07
1271,16520.14
1272,16521.5
1273,16518.75
1274,16518.82
1275,16508.21
1276,16466.78
1277,16392.49
1278,16325.66
1279,16311.3
1280,16354.29
1281,16414.71
1282,16453.39
1283,16460.16
1284,16440.37
1285,16403.49
1286,16374.29
1287,16380.89
1288,16429.53
1289,16489.09
1290,16526.09
1291,16528.47
1292,16501.41
1293,16453.02
1294,16405.73
1295,16387.26
1296,16411.25
1297,16456.04
1298,16494.95
1299,16514.71
1300,16517.36
1301,16506.08
1302,16487.01
1303,16467.83
1304,16456.54
1305,16462.21
1306,16493.86
1307,16543.31
1308,16576.31
1309,16559.83
1310,16505.42
1311,16455.33
1312,16445.1
1313,16475.17
1314,16535.66
1315,16610.3
1316,16670.62
1317,16688.77
1318,16674.05
1319,16667.61
1320,16702.06
1321,16753.08
1322,16775.47
1323,16748.82
1324,16710.76
1325,16705.79
1326,16744.2
1327,16801.88
1328,16853.83
1329,16879.59
1330,16860.62
1331,16798.76
1332,16750.13
1333,16777.6
1334,16876.51
1335,16966.99
1336,16977.16
1337,16929.47
1338,16890.69
1339,16902.78
1340,16935.11
1341,16945.13
1342,16923.5
1343,16899.81
1344,16901.64
1345,16921.7
1346,16935.8
1347,16925.63
1348,16890.35
1349,16832.84
1350,16772.75
1351,16749.14
1352,16793.33
1353,16866.56
1354,16896.93
1355,16848.59
1356,16786.91
1357,16792.22
1358,16872.79
1359,16958.08
1360,16984.48
1361,16967.7
1362,16957.83
1363,16983.19
1364,17017.3
1365,17026.79
1366,17013.29
1367,17012.46
1368,17054.11
1369,17123.27
1370,17188.29
1371,17230.93
1372,17261.56
1373,17293.53
1374,17329.02
1375,17361.04
1376,17383.21
1377,17393.64
1378,17391.8
1379,17381.25
1380,17372.42
1381,17375.29
1382,17386.25
1383,17392.74
1384,17384.77
1385,17362.34
1386,17327.7
1387,17282.15
1388,17225.76
1389,17160.72
1390,17107.14
1391,17093.88
1392,17129.9
1393,17172.07
1394,17170.59
1395,17115.4
1396,17034.14
1397,16955.3
1398,16903.48
1399,16901.72
1400,16946.06
1401,16984.27
1402,16964.18
1403,16895.98
1404,16830.52
1405,16809.05
1406,16836.74
1407,16910.25
1408,17004.47
1409,17068.55
1410,17060.1
1411,17005.33
1412,16958.95
1413,16954.76
1414,16981.85
1415,17023.75
1416,17066.33
1417,17097.14
1418,17107.04
1419,17099.79
1420,17082.4
1421,17067.69
1422,17075.81
1423,17120.5
1424,17166.45
1425,17157.21
1426,17077.84
1427,17002.2
1428,17009.35
1429,17089.59
1430,17168.7
1431,17189.52
1432,17162.83
1433,17114.75
1434,17064.74
1435,17024.56
1436,17003.59
1437,16999.01
1438,17003.37
1439,17013.36
1440,17033.45
1441,17068.33
1442,17116.33
1443,17171.86
1444,17225.56
1445,17257.28
1446,17246.14
1447,17195.83
1448,17132.73
1449,17083.68
1450,17073.21
1451,17124.37
1452,17219.77
1453,17287.23
1454,17265.04
1455,17194.61
1456,17161.62
1457,17207.26
1458,17284.52
1459,17339.76
1460,17361.75
1461,17365.67
1462,17366.21
1463,17375.52
1464,17404.25
1465,17443.95
1466,17469.62
1467,17464.53
1468,17447.92
1469,17447.41
1470,17465.52
1471,17475.3
1472,17456.56
1473,17437.14
1474,17461.26
1475,17533.5
1476,17596.89
1477,17597.8
1478,17551.54
1479,17505.69
1480,17490.96
1481,17503.23
1482,17533.66
1483,17567.79
1484,17587.75
1485,17579.59
1486,17539.81
1487,17468.12
1488,17386.44
1489,17333.48
1490,17334.37
1491,17368.24
1492,17405.22
1493,17423.47
1494,17408.52
1495,17355.76
1496,17299.03
1497,17280.67
1498,17309.24
1499,17356.49
1500,17396
1501,17419.22
1502,17423.44
1503,17421.89
1504,17447.91
1505,17523.62
1506,17600.5
1507,17606.38
1508,17526.6
1509,17428.5
1510,17377.26
1511,17382.39
1512,17431.48
1513,17508.03
1514,17589.2
1515,17654.31
1516,17702.22
1517,17740.13
1518,17763.05
1519,17745.3
1520,17668.21
1521,17582.82
1522,17571.86
1523,17656.41
1524,17746.78
1525,17753.84
1526,17687.84
1527,17606.79
1528,17556.39
1529,17558.89
1530,17629
1531,17739.67
1532,17843.52
1533,17906.99
1534,17922.5
1535,17890.88
1536,17858.43
1537,17892.96
1538,18002.58
1539,18087.51
1540,18054.06
1541,17946.03
1542,17870.91
1543,17875.26
1544,17900.01
1545,17886.72
1546,17858.27
1547,17872.6
1548,17939.56
1549,17991.66
1550,17970.45
1551,17923.94
1552,17941.71
1553,18039.09
1554,18122.93
1555,18112.4
1556,18049.13
1557,18017.33
1558,18041.67
1559,18069.57
1560,18058.09
1561,18038.72
1562,18064.32
1563,18134.15
1564,18187.14
1565,18175.7
1566,18122.8
1567,18069.94
1568,18058.59
1569,18130.21
1570,18295.79
1571,18461.9
1572,18519.43
1573,18467.4
1574,18390.46
1575,18350.5
1576,18340.3
1577,18342.52
1578,18357.45
1579,18396.64
1580,18461.27
1581,18529.86
1582,18581.24
1583,18621.68
1584,18671
1585,18730.77
1586,18772.16
1587,18773.16
1588,18771.09
1589,18824.18
1590,18927.59
1591,18997.19
1592,18974.5
1593,18937.48
1594,18996.26
1595,19143.74
1596,19262.95
1597,19279.21
1598,19263.21
1599,19305.75
1600,19393.48
1601,19442.44
1602,19415.94
1603,19382.96
1604,19413.68
1605,19476.54
1606,19492.3
1607,19437.06
1608,19370.38
1609,19349.02
1610,19379.13
1611,19450.21
1612,19539.91
1613,19613.71
1614,19643.26
1615,19622.62
1616,19553.03
1617,19468.23
1618,19424.17
1619,19441.11
1620,19463.65
1621,19436.52
1622,19375.62
1623,19327.45
1624,19302.89
1625,19265.09
1626,19188.26
1627,19108.46
1628,19075.2
1629,19081.11
1630,19071
1631,19017.66
1632,18968.39
1633,18973.64
1634,19009.62
1635,19015.13
1636,18973.22
1637,18933.81
1638,18938.4
1639,18962.31
1640,18963.42
1641,18941.25
1642,18932.39
1643,18955.14
1644,18976.78
1645,18961.62
1646,18920.11
1647,18885.96
1648,18874.69
1649,18875.06
1650,18874.9
1651,18867.37
1652,18848.56
1653,18838.38
1654,18876.04
1655,18966.12
1656,19033.14
1657,19005.23
1658,18918.04
1659,18852.95
1660,18844.81
1661,18871.72
1662,18912.16
1663,18957.9
1664,19003.29
1665,19039.54
1666,19055.96
1667,19051.8
1668,19043.47
1669,19045
1670,19049.48
1671,19044.56
1672,19040.05
1673,19065.05
1674,19127.05
1675,19181.31
1676,19182.91
1677,19139.37
1678,19080.55
1679,19032.63
1680,19017.41
1681,19040.03
1682,19055.3
1683,19017.27
1684,18963.37
1685,18974.95
1686,19067.7
1687,19165.08
1688,19205.36
1689,19209.71
1690,19216.1
1691,19228.98
1692,19231.32
1693,19219.05
1694,19209.87
1695,19219.89
1696,19249.01
1697,19290.68
1698,19311.8
1699,19260.45
1700,19143.67
1701,19075.96
1702,19144.72
1703,19248.62
1704,19240.11
1705,19147.98
1706,19137.8
1707,19260.4
1708,19341.06
1709,19233.58
1710,19066.18
1711,19041.36
1712,19163.57
1713,19280.94
1714,19310.83
1715,19310.49
1716,19337.41
1717,19372.56
1718,19376.04
1719,19347.8
1720,19318.03
1721,19302.31
1722,19288.65
1723,19267.7
1724,19255.23
1725,19271.51
1726,19303.05
1727,19313.31
1728,19298.59
1729,19308.56
1730,19372.12
1731,19417.27
1732,19359.17
1733,19241.67
1734,19184.31
1735,19225.03
1736,19289.1
1737,19324.22
1738,19376.61
1739,19498.73
1740,19631.23
1741,19663.17
1742,19580.96
1743,19478.71
1744,19424.09
1745,19404.6
1746,19397.85
1747,19396.14
1748,19397.76
1749,19409.02
1750,19442.94
1751,19492.92
1752,19515.82
1753,19483.64
1754,19451.03
1755,19485.62
1756,19552.46
1757,19555.57
1758,19488.25
1759,19462.41
1760,19536.87
1761,19592.81
1762,19510.13
1763,19381.13
1764,19378.2
1765,19502.9
1766,19604.12
1767,19599.4
1768,19545.73
1769,19503.37
1770,19481.27
1771,19474.17
1772,19468.86
1773,19447.9
1774,19406.02
1775,19352.48
1776,19311.46
1777,19341.65
1778,19480.52
1779,19619.89
1780,19613.69
1781,19477.59
1782,19341.97
1783,19293.33
1784,19351.55
1785,19494.68
1786,19592.18
1787,19527.46
1788,19406.21
1789,19411.25
1790,19536.44
1791,19624.82
1792,19607.44
1793,19560.98
1794,19551.21
1795,19567.21
1796,19585.96
1797,19606.66
1798,19636.92
1799,19668.52
1800,19680.29
1801,19663.2
1802,19628.2
1803,19593.5
1804,19594.52
1805,19657.57
1806,19726.76
1807,19718.1
1808,19625.65
1809,19504.05
1810,19407.6
1811,19387.67
1812,19461.03
1813,19548.77
1814,19573.79
1815,19562.87
1816,19573.17
1817,19592.29
1818,19563.63
1819,19495.16
1820,19473.8
1821,19542.49
1822,19635.18
1823,19686.54
1824,19699.19
1825,19693.07
1826,19679.52
1827,19664.66
1828,19638.25
1829,19575.63
1830,19499.14
1831,19509.32
1832,19661.65
1833,19853.36
1834,19964.43
1835,19949.21
1836,19795.59
1837,19574.38
1838,19407.78
1839,19359.56
1840,19426.81
1841,19569.32
1842,19681.31
1843,19686.03
1844,19635.94
1845,19599.97
1846,19568.85
1847,19508.02
1848,19459.38
1849,19514.71
1850,19658.76
1851,19750.08
1852,19709.22
1853,19594.5
1854,19481.63
1855,19449.43
1856,19552.58
1857,19689.8
1858,19712.64
1859,19626.08
1860,19533.49
1861,19497.69
1862,19535.9
1863,19625.9
1864,19680.45
1865,19640.84
1866,19551.93
1867,19469.08
1868,19404.66
1869,19360.25
1870,19361.3
1871,19439.99
1872,19527.29
1873,19472.64
1874,19293.37
1875,19234.09
1876,19410.83
1877,19630.47
1878,19708.56
1879,19632.1
1880,19439.56
1881,19250.91
1882,19201.97
1883,19287.99
1884,19423.91
1885,19540.53
1886,19584.34
1887,19534.55
1888,19414.65
1889,19274.05
1890,19209.84
1891,19274.31
1892,19350.35
1893,19324.83
1894,19294.74
1895,19399.21
1896,19538.37
1897,19506.1
1898,19345.11
1899,19284.74
1900,19377.58
1901,19469.8
1902,19467.78
1903,19398.9
1904,19300.28
1905,19204.03
1906,19142.64
1907,19152.49
1908,19254.79
1909,19375.6
1910,19415.88
1911,19367.52
1912,19271.21
1913,19163.51
1914,19076.92
1915,19029.58
1916,19023.51
1917,19044.11
1918,19052.03
1919,19027.72
1920,19001.16
1921,19002.39
1922,19039.49
1923,19110.65
1924,19188.25
1925,19240.37
1926,19259.15
1927,19247.9
1928,19219.79
1929,19193.31
1930,19177.81
1931,19174.02
1932,19153.41
1933,19056.6
1934,18907.25
1935,18856.31
1936,18967.54
1937,19103.36
1938,19140.03
1939,19063.36
1940,18904.32
1941,18794.99
1942,18846.73
1943,18925.56
1944,18852.91
1945,18732.22
1946,18766.06
1947,18855.08
1948,18741.7
1949,18524.49
1950,18565.93
1951,18826.63
1952,18861.77
1953,18605.98
1954,18509.8
1955,18733.31
1956,18890.74
1957,18766.86
1958,18629.07
1959,18680.44
1960,18767.27
1961,18739.2
1962,18682.74
1963,18697.62
1964,18693.35
1965,18566.46
1966,18472.43
1967,18615.51
1968,18819.84
1969,18771.07
1970,18576.68
1971,18564.51
1972,18683.77
1973,18624.03
1974,18365.49
1975,18145.2
1976,18098.05
1977,18237.24
1978,18447.14
1979,18458.3
1980,18226.77
1981,18070.38
1982,18150.59
1983,18282.93
1984,18314.12
1985,18242.88
1986,18125.28
1987,18115.07
1988,18287.72
1989,18421.9
1990,18321.43
1991,18103.48
1992,17929.53
1993,17831.35
1994,17805.16
1995,17848.37
1996,17949.97
1997,18045.6
1998,18061.63
1999,18004.85
2000,17919
2001,17863.14
2002,17894.78
2003,17980.83
2004,18037.38
2005,17987.21
2006,17772.58
2007,17533.96
2008,17533.21
2009,17725.33
2010,17832.88
2011,17800.58
2012,17767.14
2013,17759.81
2014,17696.56
2015,17580.4
2016,17505.24
2017,17496.11
2018,17496.08
2019,17478.65
2020,17459.61
2021,17445.95
2022,17429.86
2023,17408.96
2024,17389.74
2025,17368.4
2026,17325.42
2027,17274.36
2028,17281.66
2029,17335.98
2030,17291.22
2031,17112.82
2032,16980.03
2033,16976.06
2034,16973.87
2035,16921.67
2036,16947.77
2037,17091.38
2038,17184.18
2039,17122.34
2040,16974.47
2041,16829.59
2042,16776.92
2043,16844.48
2044,16937.15
2045,16981.77
2046,16979.65
2047,16916.23
2048,16727.56
2049,16439.61
2050,16269.97
2051,16293.86
2052,16258.79
2053,16044.69
2054,15865.37
2055,15862.48
2056,15965.76
2057,16094.35
2058,16191.92
2059,16208.91
2060,16104.17
2061,15917.05
2062,15822.31
2063,15890.68
2064,15999.78
2065,16060.91
2066,16066.69
2067,16023.16
2068,15946.17
2069,15871.26
2070,15858
2071,15877.7
2072,15788.53
2073,15598.21
2074,15500.3
2075,15540.1
2076,15586.42
2077,15583.49
2078,15562.6
2079,15531.97
2080,15476.88
2081,15432.84
2082,15471.33
2083,15533.59
2084,15471.47
2085,15324.31
2086,15252.12
2087,15255.44
2088,15239.04
2089,15177.56
2090,15081.46
2091,14923.85
2092,14683.52
2093,14514.26
2094,14589.4
2095,14733.28
2096,14709.04
2097,14651.49
2098,14727.29
2099,14706.75
2100,14402.92
2101,14202.3
2102,14390.55
2103,14509.21
2104,14248.76
2105,14083.01
2106,14287.92
2107,14415.77
2108,14210.45
2109,13952.88
2110,13831.13
2111,13797.13
2112,13796.37
2113,13793.12
2114,13771.02
2115,13733.3
2116,13683.81
2117,13626.55
2118,13572.13
2119,13532
2120,13474.9
2121,13365.47
2122,13342.27
2123,13553.48
2124,13679.05
2125,13365.21
2126,12975.7
2127,12932.75
2128,13056.13
2129,13108.04
2130,13096.75
2131,13050.91
2132,12945.12
2133,12787.45
2134,12656.98
2135,12587.74
2136,12543.59
2137,12532.53
2138,12606.5
2139,12669.61
2140,12527.67
2141,12291.51
2142,12225.45
2143,12236.13
2144,12113.06
2145,11987.55
2146,12032.93
2147,12070.07
2148,11935.47
2149,11805.17
2150,11802.84
2151,11785.87
2152,11680.37
2153,11586.6
2154,11548.02
2155,11517.86
2156,11457.61
2157,11346.88
2158,11232.94
2159,11195.82
2160,11215.17
2161,11220.5
2162,11136.21
2163,10944.56
2164,10854.72
2165,10967.2
2166,10954.67
2167,10664.29
2168,10391.16
2169,10305.8
2170,10350.44
2171,10427.31
2172,10424.05
2173,10327.14
2174,10194.79
2175,10135.13
2176,10224.94
2177,10281.78
2178,10143.65
2179,9965.404
2180,9894.158
2181,9923.425
2182,9928.725
2183,9661.038
2184,9254.821
2185,9186.701
2186,9379.986
2187,9437.449
2188,9398.878
2189,9432.558
2190,9392.53
2191,9132.526
2192,8767.784
2193,8489.094
2194,8530.721
2195,8815.907
2196,8904.161
2197,8740.615
2198,8579.754
2199,8490.147
2200,8439.438
2201,8402.427
2202,8339.17
2203,8155.034
2204,7878.178
2205,7795.931
2206,7925.389
2207,7923.646
2208,7784.312
2209,7759.059
2210,7818.887
2211,7820.15
2212,7775.448
2213,7720.235
2214,7616.794
2215,7440.192
2216,7213.179
2217,7019.733
2218,6992.59
2219,7115.645
2220,7271.554
2221,7342.613
2222,7246.221
2223,7027.587
2224,6779.504
2225,6630.435
2226,6611.926
2227,6627.774
2228,6596.141
2229,6469.499
2230,6326.968
2231,6275.608
2232,6305.661
2233,6366.609
2234,6383.9
2235,6325.842
2236,6221.057
2237,6098.505
2238,5976.341
2239,5815.442
2240,5631.614
2241,5743.625
2242,6165.996
2243,6152.847
2244,5650.36
2245,5469.638
2246,5637.538
2247,5685.107
2248,5547.754
2249,5325.135
2250,5147.843
2251,5064.14
2252,4979.932
2253,4923.325
2254,5013.375
2255,5051.166
2256,4789.369
2257,4491.591
2258,4404.266
2259,4428.451
2260,4453.463
2261,4420.586
2262,4394.081
2263,4481.424
2264,4597.582
2265,4602
2266,4385.876
2267,3988.792
2268,3647.375
2269,3535.626
2270,3713.749
2271,3892.747
2272,3788.51
2273,3541.562
2274,3347.448
2275,3351.303
2276,3508.374
2277,3640.133
2278,3665.215
2279,3586.413
2280,3538.369
2281,3590.08
2282,3668.186
2283,3638.344
2284,3375.816
2285,3055.465
2286,2881.559
2287,2810.161
2288,2783.971
2289,2794.594
2290,2910.29
2291,3165.545
2292,3139.033
2293,2672.171
2294,2593.926
2295,2994.305
2296,3001.552
2297,2569.177
2298,2148.654
2299,2138.841
2300,2521.596
