400,50639.45
401,50566.31
402,50511.28
403,50495.31
404,50540.84
405,50656.52
406,50787.36
407,50860.11
408,50807.42
409,50644.21
410,50448.74
411,50300.2
412,50239.55
413,50234.02
414,50242.55
415,50231.18
416,50202.78
417,50172.44
418,50154.3
419,50147.85
420,50140.11
421,50117.77
422,50072.09
423,50003.85
424,49914.91
425,49810.65
426,49715.74
427,49661.63
428,49676.94
429,49740.66
430,49788.18
431,49753.91
432,49609.38
433,49405.1
434,49201.47
435,49050.5
436,48958.39
437,48915.17
438,48910.1
439,48917.42
440,48898.5
441,48814.67
442,48654.2
443,48459.88
444,48280.94
445,48156.91
446,48077.51
447,48016.29
448,47948.1
449,47866.23
450,47778.46
451,47692.86
452,47612.39
453,47530.69
454,47440.45
455,47335.81
456,47217.27
457,47087.14
458,46948.52
459,46814.68
460,46705.75
461,46641.46
462,46616.71
463,46588.39
464,46510.37
465,46355.84
466,46167.88
467,46005.29
468,45920.15
469,45903.47
470,45912.8
471,45906.1
472,45861.39
473,45781.02
474,45668.76
475,45534.14
476,45402.34
477,45301.2
478,45252.07
479,45233.55
480,45206.6
481,45134.24
482,45017.49
483,44892.05
484,44794.6
485,44737.57
486,44685.51
487,44597.48
488,44446.47
489,44269.16
490,44120.4
491,44049.72
492,44047.55
493,44066.19
494,44058.09
495,44000.23
496,43902.97
497,43779
498,43639.91
499,43494.22
500,43349.81
501,43214.92
502,43100.52
503,43018.65
504,42980.67
505,42985.71
506,43021.98
507,43077.29
508,43130.42
509,43143.36
510,43076.49
511,42907.75
512,42685.56
513,42475.88
514,42337.75
515,42268.13
516,42230.07
517,42187.26
518,42127.3
519,42064.12
520,42012.93
521,41979.11
522,41945.94
523,41893.74
524,41806.66
525,41687.02
526,41542.68
527,41381.82
528,41216.67
529,41062
530,40932.19
531,40829.43
532,40740.79
533,40652.51
534,40560.94
535,40487.55
536,40457.55
537,40484.43
538,40520.65
539,40498.86
540,40359.54
541,40133.12
542,39908.96
543,39775.17
544,39752.74
545,39778.29
546,39783.48
547,39726.81
548,39632.09
549,39532.84
550,39454.34
551,39380.89
552,39284.04
553,39140.84
554,38987.13
555,38894.93
556,38933.33
557,39079.17
558,39203.02
559,39170.66
560,38932.36
561,38621.05
562,38393
563,38360.32
564,38447.91
565,38530.84
566,38497.61
567,38350.55
568,38151.21
569,37960.02
570,37808.99
571,37703.04
572,37645.86
573,37631.71
574,37638.46
575,37642.48
576,37623.77
577,37573.96
578,37487.16
579,37361.34
580,37219.69
581,37095.14
582,37017.75
583,36980.27
584,36948.71
585,36889.42
586,36796.49
587,36699.09
588,36628.41
589,36594.75
590,36561.33
591,36485.06
592,36338.28
593,36157.84
594,35997.35
595,35903.48
596,35868.66
597,35859.2
598,35842.57
599,35807.34
600,35759.75
601,35706.53
602,35652.97
603,35602.23
604,35557.28
605,35515.89
606,35462.67
607,35380.27
608,35260.78
609,35139.15
610,35062.37
611,35068.71
612,35124.12
613,35158.32
614,35105.24
615,34971.24
616,34824.14
617,34732.33
618,34714.42
619,34718.89
620,34689.24
621,34595.24
622,34468.73
623,34350.44
624,34269.46
625,34207.08
626,34132.27
627,34019.94
628,33887.89
629,33772.98
630,33708.93
631,33685.47
632,33659.99
633,33590.52
634,33474.13
635,33354.33
636,33276.84
637,33259.63
638,33267.37
639,33258.85
640,33206.33
641,33124.85
642,33037.89
643,32963.9
644,32894.62
645,32812.81
646,32704.96
647,32592.21
648,32514.68
649,32509.72
650,32564.04
651,32620.51
652,32621.76
653,32550.64
654,32444.16
655,32342.92
656,32270.52
657,32214.79
658,32159.02
659,32092.14
660,32021.94
661,31960.2
662,31915.14
663,31875.42
664,31822.94
665,31742.89
666,31650.43
667,31576.88
668,31551.04
669,31558.95
670,31551.41
671,31479.63
672,31339.99
673,31184.99
674,31070.08
675,31020.66
676,31005.96
677,30989.19
678,30945.13
679,30881.69
680,30812.63
681,30747.37
682,30675.88
683,30582.77
684,30457.13
685,30319.27
686,30202.91
687,30138.58
688,30121.32
689,30123.43
690,30117.8
691,30094.18
692,30058.04
693,30015.31
694,29967.38
695,29909.45
696,29836.35
697,29747.07
698,29648.79
699,29549.58
700,29460.26
701,29399.65
702,29387.92
703,29431.81
704,29480.45
705,29467.63
706,29341.92
707,29145.7
708,28958.38
709,28852.36
710,28832.96
711,28867.29
712,28922.17
713,28964.81
714,28962.78
715,28885.34
716,28745.79
717,28606.45
718,28531.21
719,28540.4
720,28587.21
721,28619.36
722,28602.41
723,28540.04
724,28440.86
725,28320.84
726,28218.31
727,28175.67
728,28215.42
729,28274.44
730,28266.85
731,28127.02
732,27911.95
733,27724.88
734,27655.22
735,27673.06
736,27686.45
737,27610.59
738,27456.49
739,27302.47
740,27224.49
741,27227.33
742,27249.07
743,27226.89
744,27146.96
745,27056.16
746,27004.59
747,27013.87
748,27059.03
749,27110.91
750,27147.53
751,27162.32
752,27150.81
753,27109.69
754,27038.94
755,26939.17
756,26814.83
757,26685.51
758,26574.45
759,26499.88
760,26454.25
761,26421.65
762,26387.19
763,26342.91
764,26283.85
765,26206.56
766,26121.92
767,26048.75
768,26004.05
769,25980.46
770,25953.34
771,25899.05
772,25817.94
773,25731.9
774,25663.03
775,25620.18
776,25597.27
777,25587.36
778,25579.71
779,25558.17
780,25506.45
781,25425.44
782,25346.24
783,25302.84
784,25307.78
785,25326.47
786,25318.16
787,25259.93
788,25177.99
789,25106.9
790,25068.91
791,25044.02
792,25003.05
793,24925.32
794,24826.55
795,24732.32
796,24663.1
797,24611.79
798,24561.97
799,24500.14
800,24432.14
801,24371.87
802,24331.05
803,24303.27
804,24272.98
805,24225.65
806,24158.12
807,24074.19
808,23978.26
809,23882.64
810,23805.29
811,23762.79
812,23746.12
813,23724.4
814,23667.45
815,23575.55
816,23479.67
817,23411.3
818,23380.62
819,23372.71
820,23371.35
821,23365.83
822,23352.86
823,23329.73
824,23295.54
825,23252.23
826,23202.01
827,23149.44
828,23103.4
829,23073.2
830,23059.11
831,23042.26
832,23001.39
833,22926.89
834,22837.78
835,22757.26
836,22698.32
837,22644.96
838,22576.17
839,22479.91
840,22373.34
841,22279.43
842,22215.96
843,22181.62
844,22170.66
845,22174.08
846,22169.07
847,22129.24
848,22038.84
849,21932.96
850,21861.76
851,21862.77
852,21906.01
853,21938.96
854,21918.54
855,21858.2
856,21792.47
857,21751.32
858,21733.94
859,21726.84
860,21717.21
861,21697.51
862,21662.62
863,21607.91
864,21532.76
865,21438.49
866,21328.5
867,21225.21
868,21161.35
869,21164.6
870,21211.22
871,21247.41
872,21224.42
873,21152.65
874,21079.7
875,21049.42
876,21054.46
877,21053
878,21006.26
879,20922.36
880,20842.95
881,20807.58
882,20816.7
883,20841.14
884,20852.32
885,20840.16
886,20809.37
887,20765.15
888,20714.49
889,20665.88
890,20627.43
891,20600.3
892,20579.64
893,20560.43
894,20538.86
895,20512.16
896,20478.01
897,20442.2
898,20418.04
899,20418.27
900,20437.77
901,20454.27
902,20445.64
903,20405.61
904,20343.5
905,20269.48
906,20199.05
907,20153.04
908,20151.46
909,20191.55
910,20247.49
911,20292.8
912,20309.03
913,20285.89
914,20214.4
915,20107.87
916,20002.55
917,19934.11
918,19901.52
919,19865.97
920,19788.57
921,19668.32
922,19543.07
923,19450.95
924,19398.27
925,19358.82
926,19306.22
927,19240.87
928,19190.15
929,19180.96
930,19204.58
931,19217.11
932,19175.41
933,19081.55
934,18981.47
935,18920.92
936,18908.98
937,18920.07
938,18928.11
939,18921.38
940,18901.4
941,18870.18
942,18831.07
943,18788.57
944,18747.12
945,18709.53
946,18677.26
947,18651.64
948,18632.14
949,18616.81
950,18603.47
951,18587.7
952,18563.27
953,18524.8
954,18479.47
955,18443.59
956,18431.8
957,18434.17
958,18423.77
959,18376.27
960,18301.48
961,18231.53
962,18195.87
963,18191.89
964,18197.38
965,18191.78
966,18173.44
967,18151.46
968,18133.74
969,18116.79
970,18091.1
971,18049.8
972,18007.73
973,17990.22
974,18016.43
975,18059.82
976,18073.54
977,18019.7
978,17919.33
979,17817.4
980,17752.29
981,17723.65
982,17716.86
983,17718.21
984,17718.67
985,17710.82
986,17689.82
987,17663.13
988,17641.83
989,17633.59
990,17631.77
991,17625.94
992,17608.02
993,17578.38
994,17539.4
995,17495.24
996,17455.93
997,17432.69
998,17425.9
999,17404.71
1000,17332.79
1001,17199.54
1002,17059.4
1003,16976.68
1004,16984.26
1005,17045.53
1006,17114.63
1007,17152.54
1008,17151.02
1009,17110.75
1010,17038.87
1011,16968.32
1012,16938.5
1013,16969.82
1014,17017.35
1015,17022.13
1016,16953.01
1017,16861.24
1018,16813.14
1019,16841.4
1020,16893.35
1021,16903.32
1022,16842.61
1023,16762.69
1024,16725.08
1025,16754.6
1026,16808.47
1027,16837.14
1028,16816.67
1029,16763.13
1030,16695.9
1031,16628.48
1032,16566.71
1033,16515.82
1034,16480.84
1035,16466.51
1036,16476.88
1037,16502.97
1038,16523.63
1039,16518.49
1040,16485.38
1041,16436.17
1042,16383.24
1043,16341.34
1044,16326.65
1045,16351.42
1046,16393.23
1047,16411.78
1048,16375.21
1049,16309.82
1050,16266.07
1051,16281.73
1052,16327.54
1053,16352.18
1054,16319.67
1055,16257.03
1056,16207.45
1057,16200.68
1058,16223.75
1059,16255.22
1060,16275.77
1061,16271.34
1062,16228.82
1063,16151.9
1064,16076.58
1065,16041.87
1066,16057.3
1067,16088.28
1068,16097.73
1069,16081.23
1070,16072.28
1071,16104.29
1072,16169
1073,16220.59
1074,16216.27
1075,16168.05
1076,16125.88
1077,16134.44
1078,16185.83
1079,16244.48
1080,16281.31
1081,16309.43
1082,16358.47
1083,16446.72
1084,16540.49
1085,16591.25
1086,16570.42
1087,16514.82
1088,16474.58
1089,16477.39
1090,16497.63
1091,16502.13
1092,16472.58
1093,16416.35
1094,16343.43
1095,16267.05
1096,16204.56
1097,16172.42
1098,16164.77
1099,16155.02
1100,16117.8
1101,16052.26
1102,15974.05
1103,15898.25
1104,15833.13
1105,15783.65
1106,15754.16
1107,15745.6
1108,15757.79
1109,15787.74
1110,15822.22
1111,15845.73
1112,15850.76
1113,15849.61
1114,15857.48
1115,15880.2
1116,15907.61
1117,15928.1
1118,15933.35
1119,15918.9
1120,15880.81
1121,15819.53
1122,15739.19
1123,15644.84
1124,15550.03
1125,15473.1
1126,15428.69
1127,15408.47
1128,15395.32
1129,15376.02
1130,15352.58
1131,15330.82
1132,15311.32
1133,15281.47
1134,15226.76
1135,15149.54
1136,15080.34
1137,15051.36
1138,15065.58
1139,15093.32
1140,15104.69
1141,15091.21
1142,15060.36
1143,15020.6
1144,14985.53
1145,14971.22
1146,14986.51
1147,15004.71
1148,14988.24
1149,14919.72
1150,14842.67
1151,14811.74
1152,14846.44
1153,14900.06
1154,14919.74
1155,14891.61
1156,14848.93
1157,14825.93
1158,14829.12
1159,14843.6
1160,14855.63
1161,14865.43
1162,14880
1163,14903.89
1164,14929.93
1165,14947.46
1166,14951.69
1167,14953.89
1168,14967.96
1169,14994.33
1170,15010.85
1171,14994.3
1172,14948.06
1173,14903.16
1174,14888.64
1175,14896.16
1176,14893.48
1177,14854.48
1178,14793.03
1179,14738.25
1180,14709.69
1181,14693.67
1182,14669.38
1183,14628.69
1184,14588.94
1185,14569.92
1186,14574.19
1187,14583.69
1188,14580.4
1189,14562.63
1190,14540.3
1191,14521.85
1192,14504
1193,14478.62
1194,14439.62
1195,14388.38
1196,14327.99
1197,14264.91
1198,14212.35
1199,14183.93
1200,14179.5
1201,14182.77
1202,14177.79
1203,14163.4
1204,14148.5
1205,14140.62
1206,14137.73
1207,14134.17
1208,14126.58
1209,14118.97
1210,14116.8
1211,14124.45
1212,14144.37
1213,14178.37
1214,14218.3
1215,14246.21
1216,14246.71
1217,14232.14
1218,14230.01
1219,14259.04
1220,14296.48
1221,14307.61
1222,14277.14
1223,14236.14
1224,14221.59
1225,14238.92
1226,14252.99
1227,14228.91
1228,14170.75
1229,14109.95
1230,14073.49
1231,14057.94
1232,14048.59
1233,14033.76
1234,14010.72
1235,13978.53
1236,13943.67
1237,13924.01
1238,13936.88
1239,13975.39
1240,14012.86
1241,14025.58
1242,14014.64
1243,13991.57
1244,13968.82
1245,13961.58
1246,13985.39
1247,14036.28
1248,14078.37
1249,14074.93
1250,14027.26
1251,13969.15
1252,13931.5
1253,13916.88
1254,13915.65
1255,13919.72
1256,13926.29
1257,13933.57
1258,13935.56
1259,13919.5
1260,13873.87
1261,13817.79
1262,13795.05
1263,13840.03
1264,13921.04
1265,13980.14
1266,13981.19
1267,13952.13
1268,13932.1
1269,13936.79
1270,13949.04
1271,13950.63
1272,13941.45
1273,13933.93
1274,13937.74
1275,13946.58
1276,13948.99
1277,13939.79
1278,13928.55
1279,13926.8
1280,13940.48
1281,13969.35
1282,14011.32
1283,14050.37
1284,14063.08
1285,14035.8
1286,13992.62
1287,13966.41
1288,13968.81
1289,13975.32
1290,13959.84
1291,13927.89
1292,13910.42
1293,13932.07
1294,13975.25
1295,14006.88
1296,14008.64
1297,13999.37
1298,14002.78
1299,14017.04
1300,14011.3
1301,13959.35
1302,13890.36
1303,13862.43
1304,13910.31
1305,13985.31
1306,14020.96
1307,13992.33
1308,13937.77
1309,13898.97
1310,13891.96
1311,13915.09
1312,13962.56
1313,14010.8
1314,14031.1
1315,14014.16
1316,13988.18
1317,13984.39
1318,14009.82
1319,14050.89
1320,14093.39
1321,14123.87
1322,14129.16
1323,14110.64
1324,14103.73
1325,14146.83
1326,14233.54
1327,14312.44
1328,14338.2
1329,14322.49
1330,14301.43
1331,14301.99
1332,14326.3
1333,14371.99
1334,14424.59
1335,14456.2
1336,14443.25
1337,14401.9
1338,14366.99
1339,14363.71
1340,14388.94
1341,14434.23
1342,14482.65
1343,14507.34
1344,14486.26
1345,14441.19
1346,14415.21
1347,14429.89
1348,14443.59
1349,14404.89
1350,14319.45
1351,14259.25
1352,14287.66
1353,14370
1354,14425.24
1355,14404.62
1356,14350.32
1357,14318.9
1358,14327.79
1359,14351.67
1360,14365.93
1361,14367.03
1362,14360.6
1363,14354.75
1364,14363.75
1365,14401.97
1366,14465.08
1367,14530.54
1368,14579.08
1369,14616.35
1370,14657.25
1371,14706.51
1372,14747.23
1373,14760.91
1374,14748.92
1375,14728.96
1376,14716.87
1377,14717.04
1378,14730.35
1379,14754.09
1380,14779.42
1381,14797.47
1382,14806.21
1383,14808.13
1384,14805.44
1385,14799.09
1386,14789.67
1387,14774.29
1388,14745.54
1389,14698.24
1390,14647.66
1391,14619.03
1392,14624.25
1393,14640.02
1394,14638.36
1395,14613.54
1396,14580.98
1397,14554.43
1398,14534.06
1399,14515.43
1400,14493.8
1401,14463.85
1402,14421.11
1403,14371.85
1404,14329.4
1405,14304.74
1406,14300.34
1407,14316.8
1408,14353.06
1409,14406.09
1410,14470.89
1411,14529.86
1412,14560.23
1413,14557.34
1414,14554.97
1415,14588.91
1416,14652.29
1417,14706.51
1418,14723.27
1419,14717.19
1420,14713
1421,14720.68
1422,14731.62
1423,14736.63
1424,14731.03
1425,14712.15
1426,14679.89
1427,14639.62
1428,14597.85
1429,14566.64
1430,14562.14
1431,14591.03
1432,14625.2
1433,14629.65
1434,14603.03
1435,14583.19
1436,14600.71
1437,14626.7
1438,14609.77
1439,14539.09
1440,14478.29
1441,14491.43
1442,14559.21
1443,14611.63
1444,14602.48
1445,14556.67
1446,14511.55
1447,14494.94
1448,14525.94
1449,14608.9
1450,14682.44
1451,14668.06
1452,14564.66
1453,14476.06
1454,14495.12
1455,14581.91
1456,14639.55
1457,14624.37
1458,14598.15
1459,14628.89
1460,14714.57
1461,14809.5
1462,14873.51
1463,14884.38
1464,14826.2
1465,14742.09
1466,14726.39
1467,14835
1468,14960.42
1469,14957.81
1470,14819.95
1471,14701.06
1472,14732.08
1473,14857.24
1474,14955.92
1475,14966.27
1476,14918.1
1477,14848.55
1478,14789.62
1479,14770.8
1480,14800.63
1481,14845.28
1482,14868.53
1483,14864.67
1484,14846.48
1485,14825.56
1486,14809.78
1487,14805.71
1488,14809.47
1489,14809.3
1490,14797.15
1491,14777.9
1492,14758.96
1493,14745.76
1494,14741.88
1495,14745.85
1496,14736.21
1497,14687.74
1498,14611.64
1499,14558.72
1500,14566
1501,14593.94
1502,14581.55
1503,14528.46
1504,14510.62
1505,14589.76
1506,14719.13
1507,14814.85
1508,14837.47
1509,14811
1510,14763.88
1511,14721.48
1512,14707.8
1513,14732.8
1514,14784.29
1515,14846.98
1516,14897.84
1517,14910.66
1518,14879.31
1519,14831.8
1520,14797.23
1521,14786.65
1522,14802.77
1523,14844.61
1524,14904.74
1525,14973.48
1526,15028.89
1527,15043.23
1528,15007.18
1529,14945.38
1530,14886.83
1531,14865.1
1532,14915.68
1533,15033.18
1534,15136.77
1535,15149.39
1536,15092.45
1537,15034.81
1538,15015.36
1539,15018.3
1540,15023.62
1541,15023.72
1542,15016.86
1543,15008.13
1544,15014.36
1545,15049.17
1546,15094.43
1547,15118.42
1548,15118.06
1549,15136.33
1550,15208.62
1551,15292.77
1552,15316.2
1553,15255.56
1554,15159.48
1555,15079.85
1556,15053.26
1557,15109.49
1558,15221.13
1559,15286.71
1560,15230.89
1561,15134.43
1562,15123.04
1563,15211.68
1564,15290.69
1565,15279.95
1566,15252.03
1567,15314
1568,15453.9
1569,15546.05
1570,15513.83
1571,15464.83
1572,15535.38
1573,15691.01
1574,15762.08
1575,15658.33
1576,15517.3
1577,15500.63
1578,15598.94
1579,15693.77
1580,15719.14
1581,15725.78
1582,15770.77
1583,15836.54
1584,15868.65
1585,15852.63
1586,15840.63
1587,15879.51
1588,15944.47
1589,15984.47
1590,15983.91
1591,15971.89
1592,15973.51
1593,15983.21
1594,15988.3
1595,16003.18
1596,16067.63
1597,16194.8
1598,16312.08
1599,16338.49
1600,16299.79
1601,16294.17
1602,16367.23
1603,16447.42
1604,16460.17
1605,16430.58
1606,16430.72
1607,16492.47
1608,16586.91
1609,16684.84
1610,16781.56
1611,16879.64
1612,16967.13
1613,17017.25
1614,17017.44
1615,17004.36
1616,17018.9
1617,17026.45
1618,16940.93
1619,16745.58
1620,16570.71
1621,16539.58
1622,16586.85
1623,16566.51
1624,16444.24
1625,16335.37
1626,16325.93
1627,16330.69
1628,16226.77
1629,16037.94
1630,15911.41
1631,15927.34
1632,15986.72
1633,15977.03
1634,15913.02
1635,15873.95
1636,15885.67
1637,15893.13
1638,15851.07
1639,15792.49
1640,15770.76
1641,15785.03
1642,15786.18
1643,15747.02
1644,15701.91
1645,15688.69
1646,15689.55
1647,15658.99
1648,15600.04
1649,15586.37
1650,15668.75
1651,15771.73
1652,15791.46
1653,15731.75
1654,15683.83
1655,15701.18
1656,15745.12
1657,15767.82
1658,15748.63
1659,15679.9
1660,15591.95
1661,15561.07
1662,15633.22
1663,15738.86
1664,15790.87
1665,15791.22
1666,15798.5
1667,15839.98
1668,15887.34
1669,15912.15
1670,15913.8
1671,15900.12
1672,15873.34
1673,15830.73
1674,15782.2
1675,15767.49
1676,15819.81
1677,15895.97
1678,15921.91
1679,15882.36
1680,15828.81
1681,15803.04
1682,15805.72
1683,15829.13
1684,15860
1685,15882.18
1686,15885.38
1687,15867.55
1688,15833.66
1689,15812.9
1690,15836.76
1691,15895.61
1692,15953.22
1693,15977.43
1694,15943.56
1695,15847.54
1696,15773.29
1697,15819.58
1698,15949.79
1699,16029.09
1700,15993.76
1701,15913.23
1702,15860.49
1703,15856.57
1704,15904.8
1705,15978.57
1706,16028.03
1707,16029.41
1708,16009.78
1709,15997.59
1710,15998.82
1711,16011.46
1712,16019.02
1713,15993.78
1714,15938.26
1715,15912.88
1716,15966.31
1717,16056.47
1718,16115.15
1719,16103.6
1720,16006.04
1721,15856.71
1722,15778.13
1723,15863.05
1724,16025.77
1725,16137.2
1726,16165.87
1727,16147.99
1728,16113.64
1729,16080.7
1730,16060.8
1731,16044.89
1732,16020.17
1733,15987.76
1734,15957.41
1735,15946.71
1736,15983.76
1737,16073.71
1738,16145.55
1739,16126.36
1740,16055.17
1741,16023.68
1742,16056.07
1743,16101.72
1744,16119.45
1745,16101.67
1746,16053.73
1747,16028.56
1748,16091.12
1749,16201.59
1750,16232.17
1751,16144.3
1752,16069.72
1753,16115.16
1754,16198.76
1755,16199.74
1756,16129.92
1757,16081.33
1758,16089.51
1759,16113.96
1760,16117.08
1761,16084.8
1762,16017.44
1763,15984.76
1764,16078.46
1765,16251.85
1766,16335.05
1767,16260.98
1768,16164.22
1769,16165.63
1770,16233.97
1771,16300.22
1772,16316.59
1773,16249.83
1774,16142.94
1775,16128.75
1776,16256.97
1777,16359.26
1778,16281.76
1779,16134.15
1780,16101.57
1781,16171.81
1782,16194.19
1783,16138.56
1784,16151.3
1785,16307.58
1786,16431.32
1787,16346.62
1788,16181.68
1789,16170.4
1790,16292.79
1791,16326.67
1792,16197.46
1793,16072.38
1794,16083.97
1795,16184.03
1796,16293.07
1797,16366.91
1798,16377.3
1799,16318.23
1800,16202.59
1801,16081.75
1802,16066.9
1803,16217.1
1804,16410.36
1805,16509.78
1806,16516.13
1807,16483.91
1808,16442.62
1809,16402.26
1810,16368.94
1811,16343.86
1812,16327.16
1813,16317.15
1814,16310.59
1815,16297.31
1816,16268.3
1817,16257.71
1818,16325.89
1819,16452.33
1820,16518.34
1821,16468.13
1822,16399.73
1823,16399.54
1824,16412.57
1825,16359.59
1826,16283.47
1827,16284.54
1828,16357.25
1829,16398.64
1830,16374.16
1831,16367.92
1832,16427.95
1833,16459.76
1834,16372.71
1835,16253.67
1836,16239.13
1837,16304.44
1838,16324.94
1839,16280.54
1840,16269.47
1841,16329.12
1842,16366.31
1843,16317.42
1844,16275.59
1845,16341.43
1846,16439.1
1847,16433.39
1848,16336.43
1849,16261.33
1850,16270.09
1851,16362.03
1852,16489.88
1853,16521.32
1854,16379.04
1855,16212.74
1856,16191.23
1857,16292.95
1858,16425.62
1859,16526.98
1860,16555.99
1861,16516.89
1862,16461.57
1863,16412.15
1864,16334.53
1865,16217.92
1866,16136.49
1867,16156.42
1868,16224.32
1869,16257.08
1870,16243.72
1871,16211.64
1872,16196.23
1873,16238
1874,16318.79
1875,16342.1
1876,16277.67
1877,16248.43
1878,16342.62
1879,16457.03
1880,16471.75
1881,16415.21
1882,16363.81
1883,16336.66
1884,16320.38
1885,16311.81
1886,16317.29
1887,16344.75
1888,16403.67
1889,16476.56
1890,16488.91
1891,16396.33
1892,16278.99
1893,16231.25
1894,16283.82
1895,16433.97
1896,16571.03
1897,16540.64
1898,16365.71
1899,16203.36
1900,16125.99
1901,16105.56
1902,16128.38
1903,16214.18
1904,16352.15
1905,16446.54
1906,16421.67
1907,16330.77
1908,16249.13
1909,16198.46
1910,16182.27
1911,16215.2
1912,16313.65
1913,16428.1
1914,16460.56
1915,16394.38
1916,16304.19
1917,16241.01
1918,16211.05
1919,16202.67
1920,16172.89
1921,16109.26
1922,16112.67
1923,16259.56
1924,16400.12
1925,16354.52
1926,16203.67
1927,16122.18
1928,16103.1
1929,16040.25
1930,15975.63
1931,16066.46
1932,16265.54
1933,16298.11
1934,16103.5
1935,15962.05
1936,16030.52
1937,16152.9
1938,16185.12
1939,16125.92
1940,16007.46
1941,15894.79
1942,15850.59
1943,15880.17
1944,15966.14
1945,16064.68
1946,16122.5
1947,16114.57
1948,16034.95
1949,15912.13
1950,15801.07
1951,15749.79
1952,15796.84
1953,15916.79
1954,16001.79
1955,15994.36
1956,15931.18
1957,15859.24
1958,15828.03
1959,15854.1
1960,15860.89
1961,15793.45
1962,15734.19
1963,15771.43
1964,15874.68
1965,15982.2
1966,16054.38
1967,16063.92
1968,16016.34
1969,15936.29
1970,15885.55
1971,15933.76
1972,15960.98
1973,15730.42
1974,15377.79
1975,15352.41
1976,15677.61
1977,15917.48
1978,15875.53
1979,15691.6
1980,15507.07
1981,15430.76
1982,15496.08
1983,15602.07
1984,15653.58
1985,15601
1986,15462.58
1987,15419.24
1988,15579.28
1989,15738.16
1990,15699.49
1991,15528.37
1992,15343.68
1993,15230.57
1994,15244.64
1995,15334.52
1996,15419.02
1997,15448.81
1998,15403.1
1999,15379.88
2000,15499.41
2001,15632.21
2002,15558.66
2003,15399.84
2004,15434.74
2005,15536.94
2006,15357.77
2007,15045.86
2008,15072.55
2009,15380.22
2010,15510.01
2011,15406.99
2012,15365.26
2013,15409.41
2014,15304.78
2015,15055.42
2016,14919.04
2017,14972.99
2018,15077.88
2019,15123.29
2020,15050.67
2021,14885.74
2022,14759.44
2023,14747.61
2024,14837.53
2025,14949.04
2026,14914.3
2027,14729.23
2028,14656.35
2029,14793.24
2030,14926.83
2031,14915.69
2032,14793.31
2033,14634.13
2034,14554.03
2035,14590.41
2036,14627.15
2037,14615.07
2038,14664.29
2039,14780.28
2040,14729.96
2041,14442.49
2042,14224.04
2043,14250
2044,14342.49
2045,14372.21
2046,14393.71
2047,14414.81
2048,14304.88
2049,14057.38
2050,13947.4
2051,14082.26
2052,14169.82
2053,14075.74
2054,14064.88
2055,14254.78
2056,14394.24
2057,14312.07
2058,14063.65
2059,13786.95
2060,13720.89
2061,13900.04
2062,13991.33
2063,13862.36
2064,13769.12
2065,13826.67
2066,13873.56
2067,13797.26
2068,13596.78
2069,13412.71
2070,13559.77
2071,13944.84
2072,13942.87
2073,13510.58
2074,13335.81
2075,13538.43
2076,13568.33
2077,13349.56
2078,13316.9
2079,13511.46
2080,13592.13
2081,13487.72
2082,13368.76
2083,13315.73
2084,13327.74
2085,13347.65
2086,13289.33
2087,13174.08
2088,13083.83
2089,13022.13
2090,12954.55
2091,12903.84
2092,12909.21
2093,12922.23
2094,12870.74
2095,12772.4
2096,12677.77
2097,12631.09
2098,12642.96
2099,12583.78
2100,12382.02
2101,12330.14
2102,12617.42
2103,12837.06
2104,12690.71
2105,12479.86
2106,12432.39
2107,12394.62
2108,12289.56
2109,12276.3
2110,12371.99
2111,12337.48
2112,12117.63
2113,11921.53
2114,11859.27
2115,11911.27
2116,11994.47
2117,11983.04
2118,11869.31
2119,11728.42
2120,11579.04
2121,11421.07
2122,11385.5
2123,11595.86
2124,11730.12
2125,11454.92
2126,11220.05
2127,11471.26
2128,11741.64
2129,11599.66
2130,11344.4
2131,11248.63
2132,11225.7
2133,11162.5
2134,10989.58
2135,10782.46
2136,10799.19
2137,11020.39
2138,11128.48
2139,11030.32
2140,10831.63
2141,10637.56
2142,10539.05
2143,10544.44
2144,10613.25
2145,10654.07
2146,10572
2147,10336.37
2148,10010.21
2149,9892.355
2150,10090.16
2151,10177.89
2152,9992.383
2153,9922.613
2154,10073.92
2155,10147.16
2156,10054.71
2157,9919.952
2158,9801.093
2159,9706.219
2160,9634.375
2161,9586.831
2162,9598.951
2163,9673.729
2164,9646.159
2165,9424.212
2166,9213.71
2167,9161.353
2168,9212.949
2169,9247.077
2170,9092.523
2171,8772.729
2172,8490.033
2173,8388.207
2174,8526.92
2175,8657.395
2176,8501.271
2177,8310.575
2178,8354.03
2179,8439.14
2180,8382.638
2181,8218.573
2182,8062.484
2183,8095.608
2184,8239.647
2185,8186.779
2186,8011.475
2187,8002.392
2188,8094.351
2189,8081.614
2190,7845.044
2191,7418.286
2192,7202.854
2193,7367.116
2194,7524.958
2195,7470.743
2196,7295.212
2197,7091.835
2198,6947.092
2199,6994.654
2200,7306.444
2201,7495.593
2202,7256.638
2203,7033.029
2204,7069.567
2205,6924.929
2206,6534.619
2207,6388.51
2208,6566.99
2209,6786.164
2210,6726.684
2211,6210.27
2212,5815.688
2213,6004.278
2214,6227.958
2215,6162.449
2216,6178.838
2217,6315.942
2218,6215.362
2219,5974.88
2220,5941.863
2221,6017.538
2222,5990.847
2223,5902.989
2224,5830.513
2225,5800.414
2226,5793.338
2227,5742.61
2228,5631.837
2229,5487.385
2230,5350.014
2231,5256.355
2232,5201.796
2233,5159.355
2234,5076.692
2235,4957.882
2236,4880.611
2237,4855.072
2238,4843.591
2239,4864.275
2240,4915.088
2241,4822.895
2242,4591.006
2243,4657.118
2244,4922.442
2245,4672.082
2246,4185.532
2247,4254.844
2248,4573.064
2249,4604.82
2250,4391.45
2251,4130.994
2252,4079.838
2253,4158.053
2254,4019.356
2255,3793.618
2256,3764.734
2257,3792.381
2258,3695.119
2259,3461.139
2260,3251.827
2261,3367.342
2262,3624.392
2263,3614.001
2264,3450.516
2265,3380.757
2266,3517.516
2267,3708.052
2268,3499.129
2269,3034.851
2270,2838.8
2271,2879.21
2272,2961.633
2273,3064.612
2274,3132.745
2275,3024.487
2276,2838.201
2277,2805.059
2278,2729.546
2279,2441.033
2280,2377.925
2281,2651.952
2282,2735.179
2283,2625.036
2284,2682.931
2285,2721.729
2286,2529.851
2287,2438.634
2288,2548.783
2289,2531.568
2290,2404.905
2291,2394.26
2292,2413.896
2293,2284.811
2294,1873.405
2295,1476.913
2296,1782.658
2297,2385.628
2298,2457.396
2299,2108.763
2300,1700.189
