400,52921.05
401,52891.36
402,52902.9
403,52939.82
404,52985.68
405,53024.82
406,53044.96
407,53034.85
408,52983.95
409,52891.54
410,52764.53
411,52610.02
412,52442.46
413,52290.61
414,52184.69
415,52148
416,52167.36
417,52217.64
418,52273.94
419,52313.97
420,52317.71
421,52265.37
422,52154.22
423,52017.27
424,51891.84
425,51810.68
426,51781.36
427,51802.52
428,51871.44
429,51959.31
430,52014.52
431,51985.07
432,51849.93
433,51653.97
434,51450.3
435,51287.22
436,51187.02
437,51162.79
438,51225.1
439,51341
440,51440.17
441,51451.74
442,51344.7
443,51168.93
444,50983.82
445,50839.55
446,50738.82
447,50668.98
448,50617.62
449,50576.48
450,50540.54
451,50504.9
452,50467.48
453,50431.23
454,50399.65
455,50372.27
456,50330.8
457,50252.01
458,50115.49
459,49934.96
460,49747.31
461,49589.25
462,49474.15
463,49379.69
464,49280.66
465,49159.72
466,49027.96
467,48902.92
468,48799.96
469,48714.45
470,48630.89
471,48533.93
472,48416.16
473,48279.71
474,48127.34
475,47971.4
476,47850.89
477,47809.21
478,47875.86
479,47987.65
480,48043.25
481,47947.18
482,47712.21
483,47450.01
484,47274.84
485,47231.91
486,47229.88
487,47161.71
488,46954.14
489,46687.82
490,46487.41
491,46464.56
492,46585.79
493,46724.02
494,46753.14
495,46631.16
496,46430.56
497,46231.61
498,46090.36
499,45991.46
500,45906.41
501,45810.69
502,45706.36
503,45606.73
504,45524.7
505,45465.84
506,45429.26
507,45413.74
508,45410.32
509,45395.8
510,45345.5
511,45244.34
512,45115.43
513,44991.44
514,44901.34
515,44840.64
516,44786.55
517,44716.87
518,44626.42
519,44528.96
520,44439.14
521,44364.89
522,44299.15
523,44232.81
524,44156.61
525,44060.37
526,43933.68
527,43768.12
528,43577.38
529,43389.11
530,43230.52
531,43110.63
532,43015.87
533,42931.36
534,42850.78
535,42789.05
536,42764.24
537,42784.61
538,42807.23
539,42772.55
540,42628.7
541,42412.26
542,42217.76
543,42137.98
544,42180.82
545,42247.65
546,42233.65
547,42085.28
548,41873.99
549,41689.71
550,41602.41
551,41583.54
552,41573.75
553,41519.32
554,41425.27
555,41332.74
556,41281.91
557,41272.98
558,41260.2
559,41195.67
560,41059.89
561,40894.85
562,40750.41
563,40661.27
564,40598.02
565,40514.16
566,40370.36
567,40188.97
568,40024.36
569,39928.69
570,39906.63
571,39917.58
572,39919.55
573,39890.08
574,39840.5
575,39785.43
576,39735.2
577,39686.17
578,39631.84
579,39566.01
580,39483.92
581,39381.41
582,39255.24
583,39114.2
584,38975.65
585,38856.98
586,38771.03
587,38724.98
588,38725.54
589,38762.06
590,38784.59
591,38738.05
592,38586.7
593,38375.56
594,38170.7
595,38030.94
596,37958.92
597,37930.18
598,37920.29
599,37906.32
600,37866.64
601,37780.18
602,37648.75
603,37507.08
604,37392.21
605,37322.94
606,37272.2
607,37205.99
608,37102.71
609,36996.94
610,36939.09
611,36969.51
612,37045.26
613,37081.62
614,36999.12
615,36808.3
616,36596.07
617,36450.07
618,36397.86
619,36382.43
620,36340.72
621,36240.19
622,36120.47
623,36031.55
624,36004.46
625,35992.34
626,35928.3
627,35759.55
628,35535.36
629,35350.43
630,35291.71
631,35340.21
632,35398.86
633,35371.62
634,35239.41
635,35074.52
636,34953.89
637,34919.31
638,34945.03
639,34997.77
640,35044.57
641,35053.07
642,34991.14
643,34838.37
644,34637.08
645,34450.59
646,34335.98
647,34293.48
648,34292.14
649,34301.24
650,34297.22
651,34262.79
652,34181.35
653,34054.89
654,33910.46
655,33776.68
656,33674.52
657,33608.76
658,33582.14
659,33590.2
660,33603.95
661,33589.36
662,33520.34
663,33414.42
664,33304.13
665,33218.62
666,33156.92
667,33101.72
668,33036.82
669,32965.95
670,32909.3
671,32886.61
672,32887.07
673,32861.98
674,32760.9
675,32578.06
676,32391.46
677,32287.88
678,32311.46
679,32384.16
680,32406.51
681,32305.7
682,32127.23
683,31949.57
684,31839.47
685,31782.85
686,31730.94
687,31639.46
688,31515.44
689,31398.68
690,31327.71
691,31307.19
692,31310.27
693,31309.27
694,31288.66
695,31249.25
696,31193.01
697,31120.99
698,31032.46
699,30926.52
700,30808.67
701,30703.04
702,30636.99
703,30626.88
704,30641.97
705,30638.99
706,30581.74
707,30478.7
708,30356.04
709,30239.16
710,30146.42
711,30092.11
712,30088.03
713,30107.49
714,30093.03
715,29988.9
716,29806.78
717,29633.29
718,29557.5
719,29601.27
720,29682.76
721,29711.85
722,29639.19
723,29502.9
724,29352.32
725,29225.55
726,29127.05
727,29054.91
728,29004.62
729,28960.42
730,28903.57
731,28819.95
732,28723.19
733,28637.42
734,28583.79
735,28557.59
736,28540.68
737,28515.85
738,28478.24
739,28431.7
740,28380.02
741,28322.52
742,28254.33
743,28170.68
744,28075.44
745,27983.22
746,27909.07
747,27857.08
748,27813.35
749,27762.46
750,27699.49
751,27642.51
752,27612.52
753,27617.2
754,27625.57
755,27599.76
756,27516.22
757,27406.95
758,27317.39
759,27281.38
760,27272.68
761,27245.52
762,27162.75
763,27046.93
764,26946.21
765,26903.07
766,26906.81
767,26917.13
768,26895.99
769,26836.89
770,26755.79
771,26668.91
772,26590.29
773,26531.96
774,26505.08
775,26498.93
776,26478.1
777,26406.75
778,26284.26
779,26159.67
780,26085.18
781,26080.36
782,26107.24
783,26122.27
784,26097.2
785,26037.43
786,25952.83
787,25853.21
788,25748.27
789,25647.63
790,25558.91
791,25482.86
792,25418.71
793,25367.42
794,25337.49
795,25339.44
796,25376.23
797,25409.94
798,25388.83
799,25274.01
800,25112.34
801,24986.31
802,24966.16
803,25019.59
804,25062.51
805,25018.16
806,24889.25
807,24726.77
808,24580.41
809,24475.76
810,24420.9
811,24421.84
812,24455.18
813,24472.36
814,24426.31
815,24319.37
816,24203.65
817,24132.07
818,24120.74
819,24142.49
820,24167.89
821,24173.78
822,24145.49
823,24069.39
824,23953.25
825,23838.99
826,23771.14
827,23765.67
828,23785.82
829,23789.41
830,23749.58
831,23672.1
832,23566.92
833,23448.29
834,23341.1
835,23271.74
836,23252.61
837,23256.52
838,23249.41
839,23207.37
840,23139.08
841,23059.81
842,22982.53
843,22911.8
844,22850.24
845,22799.81
846,22759.82
847,22728.89
848,22705.58
849,22688.17
850,22674.86
851,22663.58
852,22650.73
853,22632.2
854,22602.75
855,22549.96
856,22458.77
857,22320.72
858,22171.8
859,22066.34
860,22049.16
861,22094.1
862,22142.67
863,22143.13
864,22100.09
865,22046.31
866,22010.79
867,21987.21
868,21950.04
869,21877.54
870,21787.12
871,21719.15
872,21709.94
873,21748.6
874,21794.51
875,21808.78
876,21777.14
877,21701.97
878,21587.81
879,21464.82
880,21381.42
881,21381.79
882,21445.09
883,21501.31
884,21484.17
885,21401.59
886,21320.54
887,21305.11
888,21347
889,21377.46
890,21330.27
891,21213.68
892,21100.74
893,21062.79
894,21102.12
895,21158.58
896,21172.17
897,21125.68
898,21041.9
899,20944.82
900,20853.68
901,20783.15
902,20746.71
903,20737.3
904,20727.66
905,20690.86
906,20624.71
907,20551.79
908,20495.04
909,20461.66
910,20442.99
911,20429.6
912,20410.97
913,20375.44
914,20312.06
915,20227.17
916,20144.96
917,20089.48
918,20063.56
919,20048.14
920,20023.74
921,19982.98
922,19930.94
923,19873.46
924,19821.99
925,19793.72
926,19804.74
927,19841.33
928,19859.81
929,19817.35
930,19716.32
931,19603.88
932,19527.1
933,19494.22
934,19475.92
935,19442.6
936,19389.54
937,19335.48
938,19299.44
939,19288.79
940,19300.31
941,19329.58
942,19357.79
943,19353.32
944,19286.97
945,19176.94
946,19081.71
947,19057
948,19095.88
949,19140.37
950,19134.74
951,19076.7
952,19005.37
953,18958.63
954,18943.21
955,18942.91
956,18941.5
957,18928.89
958,18899.24
959,18848.08
960,18785.54
961,18731.36
962,18703.58
963,18700.98
964,18710.57
965,18719.71
966,18720.55
967,18708.06
968,18678.14
969,18635.12
970,18587.75
971,18544.18
972,18507.6
973,18478.78
974,18457.1
975,18431.97
976,18388.35
977,18315.2
978,18228.03
979,18153.07
980,18111.72
981,18096.9
982,18091.03
983,18079.75
984,18065.54
985,18056.51
986,18058.27
987,18064.92
988,18067.14
989,18057.66
990,18037.81
991,18011.19
992,17981.94
993,17956.38
994,17941.32
995,17936.95
996,17921.73
997,17869.73
998,17771.7
999,17666.38
1000,17601.02
1001,17599.25
1002,17625.06
1003,17633.33
1004,17599.81
1005,17546.33
1006,17500.88
1007,17483.59
1008,17478.83
1009,17460.67
1010,17410.91
1011,17341.9
1012,17273.67
1013,17224.09
1014,17203.84
1015,17221.96
1016,17277.48
1017,17339.41
1018,17371.38
1019,17355.72
1020,17322.26
1021,17308.12
1022,17328.47
1023,17350.95
1024,17337.32
1025,17275.24
1026,17200.21
1027,17152.35
1028,17145.7
1029,17153.49
1030,17145.97
1031,17112.52
1032,17067.84
1033,17028.01
1034,17000.04
1035,16980.88
1036,16967.15
1037,16959.62
1038,16962.9
1039,16980.75
1040,17002.15
1041,17004.65
1042,16968.6
1043,16909.21
1044,16863.84
1045,16865.17
1046,16902.61
1047,16943.23
1048,16957.57
1049,16940.92
1050,16898.82
1051,16840
1052,16789.67
1053,16778.45
1054,16823.76
1055,16888.72
1056,16922.58
1057,16894.69
1058,16838.52
1059,16800.19
1060,16802.33
1061,16809.69
1062,16778.55
1063,16698.4
1064,16622.34
1065,16609.71
1066,16669.57
1067,16735.93
1068,16738.88
1069,16672.96
1070,16607.6
1071,16612.71
1072,16689.01
1073,16774.8
1074,16811.24
1075,16802.66
1076,16797.2
1077,16838.66
1078,16925.41
1079,17031.98
1080,17136.21
1081,17238.48
1082,17347.92
1083,17467.5
1084,17571.87
1085,17627.57
1086,17618.2
1087,17583.3
1088,17573.77
1089,17615.45
1090,17674.62
1091,17709.16
1092,17693.42
1093,17630.27
1094,17525.67
1095,17395.96
1096,17270.65
1097,17178.62
1098,17119.64
1099,17066.49
1100,16993.63
1101,16908.28
1102,16839.76
1103,16812.19
1104,16805.38
1105,16777.87
1106,16700.38
1107,16609.78
1108,16564.97
1109,16603.3
1110,16683.63
1111,16747.05
1112,16757.84
1113,16737.62
1114,16716.54
1115,16714.3
1116,16732.76
1117,16771.65
1118,16818.98
1119,16848.74
1120,16835.53
1121,16776.78
1122,16688.87
1123,16588.74
1124,16493.33
1125,16419.57
1126,16378.88
1127,16348.58
1128,16293.07
1129,16189.88
1130,16068.52
1131,15971.29
1132,15920.94
1133,15890.33
1134,15844.77
1135,15772.11
1136,15697.93
1137,15650.61
1138,15635.37
1139,15631.53
1140,15618.46
1141,15595.86
1142,15578.51
1143,15579.89
1144,15599.96
1145,15632.13
1146,15666.84
1147,15680.21
1148,15643.99
1149,15549.11
1150,15444.48
1151,15389.52
1152,15406.48
1153,15447.4
1154,15457.67
1155,15419.98
1156,15361.94
1157,15312.18
1158,15273.37
1159,15228.15
1160,15162.2
1161,15090.07
1162,15040.35
1163,15032.83
1164,15045.62
1165,15044.58
1166,15009.92
1167,14961.53
1168,14925.97
1169,14914.87
1170,14914.8
1171,14910.27
1172,14893.64
1173,14865.46
1174,14827.48
1175,14791.03
1176,14773.59
1177,14787.12
1178,14809.03
1179,14803.59
1180,14750.97
1181,14686.73
1182,14658.22
1183,14683.28
1184,14720.57
1185,14722.92
1186,14682.01
1187,14635.78
1188,14621.81
1189,14637.02
1190,14649.33
1191,14631.72
1192,14595.43
1193,14567.49
1194,14565.76
1195,14574.4
1196,14569.96
1197,14541.88
1198,14505.73
1199,14479.84
1200,14470.08
1201,14467.69
1202,14463.84
1203,14458.72
1204,14458.62
1205,14468.01
1206,14479.32
1207,14480.47
1208,14465.07
1209,14444.98
1210,14435.69
1211,14445.18
1212,14468.41
1213,14498.71
1214,14523.12
1215,14522.48
1216,14481.24
1217,14420.39
1218,14380.87
1219,14391.8
1220,14426.34
1221,14441.55
1222,14418.22
1223,14393.88
1224,14413.23
1225,14478.5
1226,14537.37
1227,14538.7
1228,14494.78
1229,14462.53
1230,14488.17
1231,14548.05
1232,14592.62
1233,14589.49
1234,14557.1
1235,14523.05
1236,14503
1237,14494.25
1238,14492.68
1239,14495.58
1240,14501.44
1241,14507.99
1242,14507.6
1243,14490.38
1244,14454.12
1245,14422.1
1246,14422.51
1247,14460.35
1248,14502.48
1249,14514.05
1250,14492.55
1251,14463.08
1252,14448.53
1253,14449.78
1254,14458.16
1255,14465.91
1256,14468.29
1257,14461.32
1258,14448.87
1259,14447.31
1260,14472.47
1261,14512.83
1262,14534.68
1263,14510.61
1264,14458.05
1265,14412.26
1266,14398.17
1267,14410.33
1268,14437.76
1269,14469.93
1270,14497.02
1271,14509.74
1272,14505.6
1273,14486.76
1274,14456.04
1275,14418.95
1276,14381.9
1277,14353.06
1278,14344.57
1279,14368.63
1280,14421.01
1281,14479.14
1282,14520.93
1283,14537.17
1284,14525.59
1285,14489.17
1286,14450.68
1287,14437.39
1288,14459.49
1289,14497.87
1290,14531.12
1291,14545.94
1292,14535.64
1293,14496.98
1294,14446.24
1295,14406.9
1296,14396.9
1297,14420.24
1298,14477.99
1299,14548.48
1300,14584.17
1301,14544.81
1302,14467.59
1303,14430.18
1304,14480.73
1305,14561.7
1306,14593.05
1307,14549.94
1308,14491.39
1309,14478.93
1310,14514.62
1311,14559.54
1312,14582.55
1313,14593.36
1314,14613.6
1315,14651.04
1316,14686.66
1317,14699.72
1318,14693.99
1319,14694.26
1320,14720.74
1321,14762.36
1322,14796.57
1323,14811.75
1324,14821.97
1325,14844.34
1326,14880.68
1327,14917.47
1328,14941.36
1329,14945.03
1330,14923.78
1331,14883.02
1332,14855.2
1333,14875.95
1334,14942.15
1335,15007.56
1336,15028.92
1337,15004.74
1338,14953.12
1339,14895.54
1340,14862.76
1341,14885.85
1342,14952.37
1343,14998.91
1344,14968.74
1345,14883.51
1346,14802.95
1347,14769.5
1348,14774.23
1349,14798.92
1350,14828.39
1351,14850.99
1352,14857.17
1353,14852.67
1354,14850.45
1355,14858.87
1356,14873.34
1357,14887.28
1358,14900.85
1359,14921.66
1360,14955.25
1361,14989.88
1362,15006.3
1363,14997.37
1364,14986.33
1365,15000.12
1366,15043.77
1367,15100.97
1368,15157.04
1369,15212.45
1370,15273.36
1371,15340.89
1372,15405.44
1373,15456.26
1374,15486.49
1375,15492.48
1376,15473.53
1377,15442.84
1378,15417.79
1379,15409.68
1380,15419.42
1381,15445.65
1382,15472.34
1383,15473.92
1384,15436.02
1385,15386.21
1386,15360.8
1387,15360.38
1388,15338.88
1389,15256.21
1390,15147.16
1391,15083
1392,15100.56
1393,15145.66
1394,15151.83
1395,15105.7
1396,15044.29
1397,15001.42
1398,14982.05
1399,14981.36
1400,14989.94
1401,14990.14
1402,14965.77
1403,14928.58
1404,14908.51
1405,14924.85
1406,14958.55
1407,14982.81
1408,14989.01
1409,14990.09
1410,14997.43
1411,15003.31
1412,14992.14
1413,14961.22
1414,14935.29
1415,14940.26
1416,14967.9
1417,14984.61
1418,14967.99
1419,14941.69
1420,14939.77
1421,14967.42
1422,14993.26
1423,14988.38
1424,14959.03
1425,14926.65
1426,14906.23
1427,14898.77
1428,14903.67
1429,14923.2
1430,14961.7
1431,15017.71
1432,15068.48
1433,15087.13
1434,15072.27
1435,15052.15
1436,15050.11
1437,15048.19
1438,15012.87
1439,14939.89
1440,14878.84
1441,14880.06
1442,14938.73
1443,15016.47
1444,15080.81
1445,15117.92
1446,15118.39
1447,15094.54
1448,15078.75
1449,15095.11
1450,15126.06
1451,15142.66
1452,15136.93
1453,15129.28
1454,15138.2
1455,15153.65
1456,15153.41
1457,15137.98
1458,15152.55
1459,15240.75
1460,15368.99
1461,15455.53
1462,15449.65
1463,15391.06
1464,15333.94
1465,15302.98
1466,15297.37
1467,15315.19
1468,15353.49
1469,15408.75
1470,15467.89
1471,15506.59
1472,15506.37
1473,15485.8
1474,15476.13
1475,15481.85
1476,15465.91
1477,15397.16
1478,15319
1479,15309.67
1480,15394.27
1481,15489.95
1482,15509.32
1483,15458.49
1484,15400.22
1485,15375.26
1486,15364.97
1487,15342.83
1488,15306.4
1489,15271.45
1490,15249.4
1491,15235.9
1492,15223.7
1493,15211.58
1494,15203.88
1495,15203.7
1496,15208.55
1497,15214.65
1498,15222.99
1499,15239.69
1500,15267.65
1501,15292.93
1502,15297.02
1503,15280.97
1504,15270.47
1505,15287.9
1506,15327.82
1507,15374.97
1508,15410.69
1509,15411.46
1510,15362.12
1511,15303.57
1512,15298.18
1513,15360.06
1514,15427.3
1515,15442.72
1516,15431.59
1517,15454.31
1518,15523.12
1519,15568.24
1520,15526.37
1521,15446.78
1522,15430.23
1523,15510.11
1524,15598.66
1525,15607.89
1526,15551.52
1527,15492.1
1528,15471.21
1529,15491.08
1530,15545.67
1531,15596.2
1532,15588.23
1533,15517
1534,15469.59
1535,15528.2
1536,15653.28
1537,15746.7
1538,15759.52
1539,15732.38
1540,15710.25
1541,15697.71
1542,15680.7
1543,15662.69
1544,15677.49
1545,15753.15
1546,15853.78
1547,15915.85
1548,15911.07
1549,15867.94
1550,15818.96
1551,15788.25
1552,15796.22
1553,15841.44
1554,15890.68
1555,15913.38
1556,15909.7
1557,15890.77
1558,15864.52
1559,15834.71
1560,15807.37
1561,15801.07
1562,15837.16
1563,15903.21
1564,15948.81
1565,15938.17
1566,15905.88
1567,15903.13
1568,15940.26
1569,15988.65
1570,16026.9
1571,16063.86
1572,16113.68
1573,16171.69
1574,16218.34
1575,16236.46
1576,16216.7
1577,16154.59
1578,16086.58
1579,16075.17
1580,16145.86
1581,16243.83
1582,16309.76
1583,16335.91
1584,16340.34
1585,16342.5
1586,16363.76
1587,16421.08
1588,16502.65
1589,16586.11
1590,16662.39
1591,16739.18
1592,16821.51
1593,16898
1594,16953.42
1595,16987.1
1596,17012.03
1597,17038.75
1598,17068.5
1599,17101.04
1600,17140.16
1601,17192.32
1602,17249.33
1603,17271.23
1604,17222.98
1605,17142.27
1606,17100.68
1607,17114.68
1608,17117.71
1609,17050.83
1610,16930.22
1611,16796.31
1612,16692.78
1613,16666.62
1614,16742.44
1615,16870.42
1616,16986.75
1617,17045.96
1618,17015.43
1619,16907.42
1620,16827.47
1621,16870.46
1622,16966.49
1623,16975.3
1624,16864.48
1625,16745.96
1626,16709.2
1627,16703
1628,16643.55
1629,16537.51
1630,16467.59
1631,16484.43
1632,16551.28
1633,16619.88
1634,16660.61
1635,16653.89
1636,16609.32
1637,16580.02
1638,16605.35
1639,16641.93
1640,16625.47
1641,16560.85
1642,16514.52
1643,16525.86
1644,16558.1
1645,16567.16
1646,16552.11
1647,16533.93
1648,16522.46
1649,16511.13
1650,16494.71
1651,16479.76
1652,16475.09
1653,16473.68
1654,16455.67
1655,16423.56
1656,16431.58
1657,16524.16
1658,16622.87
1659,16599.1
1660,16453.68
1661,16344.46
1662,16384.93
1663,16500.26
1664,16581.84
1665,16605.77
1666,16602.25
1667,16596.83
1668,16605.49
1669,16636.1
1670,16660.28
1671,16641.09
1672,16597.65
1673,16597.98
1674,16669.05
1675,16737.53
1676,16728.94
1677,16663.46
1678,16600.55
1679,16561.7
1680,16525.18
1681,16481.9
1682,16468.45
1683,16522.84
1684,16614.33
1685,16675.71
1686,16684.4
1687,16680.64
1688,16698.46
1689,16730.22
1690,16759.59
1691,16783.75
1692,16808.42
1693,16826.76
1694,16811.22
1695,16746.37
1696,16678.88
1697,16668.42
1698,16713.81
1699,16769.61
1700,16802.29
1701,16801.86
1702,16762.58
1703,16687.55
1704,16585.9
1705,16516.67
1706,16577.2
1707,16770.37
1708,16917.33
1709,16866.87
1710,16713.41
1711,16621.37
1712,16633.76
1713,16697.56
1714,16764.11
1715,16798.36
1716,16780.75
1717,16761.41
1718,16806.04
1719,16890.94
1720,16924.86
1721,16870.94
1722,16792.95
1723,16754.47
1724,16769.64
1725,16834.5
1726,16891.83
1727,16848.66
1728,16706.18
1729,16617.79
1730,16689.92
1731,16789.16
1732,16743.36
1733,16598.52
1734,16529.24
1735,16591.66
1736,16677.86
1737,16705.87
1738,16715.56
1739,16763.49
1740,16841.46
1741,16909.82
1742,16940.5
1743,16918.47
1744,16851.19
1745,16800.52
1746,16821.12
1747,16871.91
1748,16879.48
1749,16837.67
1750,16797.03
1751,16776.76
1752,16734.79
1753,16645.44
1754,16582.4
1755,16633.9
1756,16751.81
1757,16806.45
1758,16769.15
1759,16745.73
1760,16800.06
1761,16847.61
1762,16797.46
1763,16699.44
1764,16657.44
1765,16680.7
1766,16693.94
1767,16663.38
1768,16639.04
1769,16665.7
1770,16726.84
1771,16790.56
1772,16831.93
1773,16831.16
1774,16806.27
1775,16819.8
1776,16890
1777,16919.18
1778,16824.4
1779,16700.94
1780,16694.12
1781,16800.79
1782,16912.32
1783,16944.51
1784,16851.7
1785,16647.01
1786,16508.42
1787,16601.95
1788,16815.83
1789,16936.65
1790,16902.97
1791,16775.8
1792,16619.06
1793,16495.66
1794,16450.22
1795,16468.3
1796,16524.41
1797,16598.41
1798,16673.09
1799,16743.24
1800,16813.34
1801,16869.23
1802,16867.03
1803,16789.98
1804,16715.21
1805,16721.24
1806,16773.79
1807,16796.71
1808,16768.32
1809,16709.35
1810,16644.1
1811,16600.39
1812,16595.49
1813,16616.36
1814,16645.73
1815,16672.22
1816,16688.23
1817,16707.63
1818,16757.22
1819,16820.65
1820,16829.19
1821,16757.01
1822,16681.1
1823,16677.12
1824,16753.6
1825,16891.23
1826,16986.16
1827,16900.28
1828,16682.48
1829,16553.26
1830,16615.27
1831,16766.15
1832,16896.89
1833,16937
1834,16842.29
1835,16679.66
1836,16550.91
1837,16500.94
1838,16536.37
1839,16615.01
1840,16641.35
1841,16579.19
1842,16513.47
1843,16517.69
1844,16575.6
1845,16648.33
1846,16678.62
1847,16610.57
1848,16503.21
1849,16492
1850,16602.17
1851,16728.1
1852,16789.85
1853,16773.69
1854,16690.16
1855,16606.97
1856,16591.43
1857,16629.49
1858,16676.35
1859,16693.78
1860,16649.42
1861,16552.47
1862,16456.22
1863,16392.22
1864,16350.05
1865,16326.81
1866,16353.82
1867,16447.53
1868,16517.57
1869,16458.92
1870,16338.14
1871,16304.99
1872,16385.76
1873,16501.93
1874,16578.3
1875,16549.05
1876,16417.37
1877,16332.39
1878,16400.6
1879,16512.18
1880,16536.18
1881,16496.18
1882,16465.53
1883,16456.24
1884,16446.04
1885,16433.8
1886,16437.05
1887,16446.07
1888,16413.19
1889,16322.66
1890,16231.86
1891,16196.67
1892,16236.61
1893,16342.55
1894,16393.55
1895,16260.5
1896,16066.8
1897,16047.99
1898,16175.28
1899,16221.57
1900,16145.58
1901,16122.31
1902,16201.89
1903,16203.87
1904,16034.73
1905,15876.71
1906,15891.46
1907,15994.94
1908,16063.59
1909,16089.96
1910,16103.67
1911,16085.18
1912,15994.22
1913,15880.04
1914,15858.39
1915,15951.75
1916,16077.29
1917,16161.51
1918,16154.6
1919,16049.16
1920,15928.59
1921,15864.67
1922,15850.23
1923,15866.14
1924,15912.33
1925,15988.97
1926,16058.78
1927,16072.9
1928,16029.25
1929,15954.62
1930,15891.8
1931,15893.56
1932,15931.03
1933,15886.43
1934,15769.62
1935,15789.38
1936,16014.1
1937,16189.39
1938,16128.31
1939,15946.88
1940,15794.34
1941,15741.69
1942,15814.11
1943,15891.75
1944,15831.4
1945,15679.77
1946,15562.78
1947,15534.28
1948,15601.46
1949,15721.1
1950,15811.75
1951,15812.52
1952,15686.94
1953,15494.37
1954,15416.12
1955,15492.1
1956,15511.32
1957,15368.91
1958,15241.84
1959,15270.85
1960,15391.76
1961,15506.64
1962,15524.62
1963,15392.59
1964,15227.99
1965,15177.96
1966,15264.91
1967,15449.36
1968,15572.53
1969,15449.17
1970,15201.99
1971,15114.78
1972,15200.18
1973,15279.05
1974,15272.69
1975,15196.16
1976,15107.84
1977,15106.11
1978,15180.7
1979,15181.1
1980,15052.78
1981,14903.41
1982,14832.74
1983,14899.48
1984,15069.05
1985,15111.05
1986,14908.63
1987,14713.88
1988,14739.22
1989,14881.78
1990,14997.26
1991,15018.66
1992,14920.18
1993,14779.29
1994,14687.58
1995,14659.96
1996,14678.85
1997,14680.34
1998,14607.03
1999,14574.67
2000,14734.44
2001,14899.17
2002,14761.23
2003,14491.16
2004,14488.64
2005,14669.59
2006,14666.84
2007,14471.32
2008,14323.67
2009,14333.49
2010,14495.62
2011,14677.61
2012,14651.38
2013,14459.52
2014,14395.65
2015,14482.87
2016,14459.76
2017,14305.58
2018,14279.51
2019,14388.54
2020,14320.6
2021,14056.07
2022,13977.68
2023,14164.69
2024,14237.94
2025,14078.06
2026,14000.01
2027,14108.99
2028,14127.25
2029,13952.81
2030,13828.22
2031,13855.08
2032,13836.76
2033,13700.25
2034,13647.01
2035,13750.07
2036,13791.23
2037,13672.61
2038,13586.58
2039,13634.53
2040,13675.84
2041,13612.79
2042,13489.13
2043,13361.81
2044,13280.31
2045,13268.72
2046,13301.36
2047,13354.21
2048,13418.59
2049,13456.86
2050,13370.3
2051,13162.4
2052,13053.14
2053,13145.29
2054,13262.77
2055,13267.43
2056,13156.13
2057,12983.15
2058,12880.23
2059,12896.68
2060,12919.68
2061,12897.46
2062,12911.52
2063,12974.01
2064,12962.81
2065,12858.71
2066,12821.38
2067,12911.49
2068,13019.89
2069,13036.96
2070,12875.39
2071,12593.02
2072,12430.45
2073,12477.4
2074,12624.26
2075,12741.38
2076,12697.09
2077,12531.52
2078,12454.08
2079,12477.66
2080,12430.58
2081,12319.57
2082,12301.19
2083,12353.74
2084,12323.11
2085,12211.42
2086,12125.54
2087,12075.06
2088,12011.38
2089,11934.24
2090,11869.88
2091,11833.83
2092,11823.88
2093,11750.74
2094,11532.68
2095,11366.74
2096,11474.07
2097,11648.66
2098,11626.11
2099,11501.76
2100,11429.91
2101,11411.23
2102,11407.61
2103,11372.2
2104,11300.24
2105,11302.77
2106,11414.79
2107,11461.17
2108,11367.61
2109,11298.46
2110,11301.63
2111,11207.71
2112,11022.15
2113,10992.47
2114,11111.91
2115,11095.32
2116,10923.93
2117,10817.67
2118,10826.05
2119,10867.51
2120,10867.67
2121,10776.99
2122,10698.15
2123,10762.12
2124,10815.61
2125,10676.08
2126,10553.83
2127,10655.33
2128,10722.59
2129,10559.28
2130,10467.31
2131,10618.72
2132,10689.66
2133,10501.79
2134,10251.95
2135,10083.66
2136,10012.09
2137,9986.227
2138,9901.553
2139,9780.946
2140,9743.802
2141,9775.188
2142,9779.56
2143,9721.793
2144,9607.669
2145,9506.809
2146,9488.349
2147,9520.262
2148,9552.326
2149,9561.567
2150,9498.127
2151,9242.755
2152,8893.682
2153,8913.902
2154,9300.057
2155,9455.769
2156,9298.613
2157,9223.489
2158,9298.92
2159,9363.563
2160,9267.451
2161,8935.932
2162,8669.89
2163,8760.413
2164,8966.617
2165,9015.413
2166,8885.335
2167,8655.021
2168,8508.977
2169,8504.587
2170,8520.774
2171,8492.787
2172,8423.059
2173,8358.746
2174,8349.662
2175,8260.44
2176,7964.604
2177,7784.729
2178,7965.5
2179,8068.389
2180,7834.063
2181,7670.838
2182,7785.772
2183,7970.845
2184,7997.599
2185,7689.04
2186,7352.637
2187,7497.759
2188,7746.563
2189,7529.968
2190,7221.836
2191,7238.11
2192,7332.865
2193,7328.814
2194,7395.279
2195,7551.169
2196,7595.229
2197,7503.322
2198,7385.59
2199,7174.36
2200,6791.702
2201,6610.56
2202,6885.303
2203,7010.621
2204,6657.517
2205,6384.549
2206,6440.875
2207,6558.44
2208,6593.056
2209,6538.53
2210,6483.465
2211,6513.604
2212,6473.312
2213,6269.985
2214,6204.905
2215,6359.131
2216,6319.866
2217,6052.663
2218,5954.875
2219,6047.249
2220,6099.977
2221,5984.309
2222,5699.081
2223,5555.713
2224,5720.276
2225,5900.588
2226,5916.157
2227,5804.989
2228,5642.884
2229,5530.125
2230,5612.437
2231,5910.074
2232,5857.219
2233,5234.979
2234,4923.505
2235,5207.227
2236,5428.381
2237,5403.19
2238,5329.659
2239,5186.053
2240,4934.622
2241,4859.915
2242,5085.41
2243,5243.72
2244,5099.723
2245,4671.34
2246,4278.703
2247,4315.921
2248,4453.692
2249,4322.698
2250,4266.864
2251,4445.351
2252,4490.631
2253,4360.917
2254,4339.415
2255,4465.921
2256,4619.018
2257,4555.183
2258,4209.85
2259,3978.447
2260,3963.539
2261,3873.286
2262,3768.645
2263,3872.74
2264,3952.779
2265,3797.611
2266,3674.159
2267,3698.16
2268,3671.376
2269,3561.755
2270,3466.742
2271,3398.355
2272,3341.552
2273,3304.374
2274,3327.621
2275,3482.226
2276,3632.901
2277,3524.625
2278,3213.527
2279,2922.48
2280,2985.982
2281,3321.985
2282,3239.031
2283,2892.916
2284,2983.491
2285,3228.74
2286,3144.664
2287,2778.425
2288,2413.788
2289,2489.619
2290,2894.765
2291,3151.276
2292,2929.04
2293,2280.255
2294,2036.633
2295,2309.979
2296,2314.842
2297,2145.87
2298,2272.14
2299,2467.609
2300,2420.171
