400,47501.89
401,47398.85
402,47308.98
403,47250.15
404,47240.69
405,47288.95
406,47357.02
407,47393.79
408,47352.38
409,47246.45
410,47136.2
411,47082.47
412,47111.3
413,47181.68
414,47245.12
415,47262.47
416,47243.39
417,47213.68
418,47197.61
419,47195.25
420,47186.13
421,47149.27
422,47074.18
423,46972.27
424,46857.65
425,46744.98
426,46652.56
427,46599.89
428,46604.13
429,46640.35
430,46646.73
431,46560.66
432,46360.71
433,46113.03
434,45894.7
435,45769.8
436,45730.64
437,45744.42
438,45778.55
439,45801.81
440,45784.16
441,45695.99
442,45534.88
443,45353.69
444,45211.76
445,45153.4
446,45145.5
447,45129.88
448,45052.14
449,44913.19
450,44757.38
451,44629.77
452,44553.95
453,44514.55
454,44492.13
455,44468.21
456,44428.32
457,44359.16
458,44249.36
459,44111.19
460,43972.85
461,43862.45
462,43789.63
463,43735.86
464,43680.3
465,43606.33
466,43512.3
467,43400
468,43272.66
469,43147.47
470,43049.18
471,43001.62
472,42998.27
473,42995.78
474,42948.77
475,42834.7
476,42693.77
477,42576.69
478,42524.58
479,42514.89
480,42498.79
481,42430.1
482,42311.26
483,42189.16
484,42111.87
485,42094.57
486,42087.45
487,42033.25
488,41893
489,41711.22
490,41556.3
491,41490.1
492,41502.11
493,41535.11
494,41532.21
495,41471.34
496,41377.81
497,41280.22
498,41194.79
499,41101.25
500,40972.63
501,40789.9
502,40588.34
503,40426
504,40357.77
505,40381.36
506,40443.52
507,40489.74
508,40485.52
509,40433.28
510,40339.3
511,40211.21
512,40061.94
513,39905.74
514,39756.68
515,39627.97
516,39532.38
517,39481.89
518,39468.67
519,39463.02
520,39434.32
521,39365.87
522,39272.24
523,39172.22
524,39080.82
525,38995.01
526,38906.28
527,38806.8
528,38696.27
529,38579.15
530,38459.94
531,38342.52
532,38230.17
533,38126.04
534,38035.23
535,37967.64
536,37933.86
537,37936.96
538,37940.7
539,37896.16
540,37760.68
541,37564.11
542,37383.86
543,37295.9
544,37308.66
545,37345.64
546,37325.46
547,37208.15
548,37054.82
549,36941.46
550,36925.02
551,36968.07
552,37003.71
553,36971.33
554,36875.48
555,36760.83
556,36671.26
557,36615.68
558,36562.77
559,36479.25
560,36353.62
561,36221.58
562,36124.8
563,36091.4
564,36091.96
565,36081.75
566,36021.21
567,35914.77
568,35789.8
569,35673.08
570,35578.34
571,35506.86
572,35459.34
573,35431.09
574,35408.02
575,35375.22
576,35323.5
577,35262.5
578,35205.63
579,35163.1
580,35124.96
581,35073.38
582,34991.98
583,34883.48
584,34764.23
585,34650.67
586,34552.79
587,34472.56
588,34411.35
589,34364.25
590,34312.09
591,34233.84
592,34118.15
593,33994.27
594,33901.97
595,33873.72
596,33883.98
597,33879.32
598,33809.43
599,33675.95
600,33524.25
601,33400.38
602,33326.66
603,33291.42
604,33280.35
605,33277.47
606,33262.38
607,33214.08
608,33120.65
609,33011.03
610,32925.67
611,32898.25
612,32906.27
613,32899.05
614,32829.08
615,32703.21
616,32574.46
617,32496.16
618,32480.98
619,32484.27
620,32457.34
621,32375.48
622,32270.83
623,32183.63
624,32141.01
625,32116.27
626,32068.85
627,31965.68
628,31827.7
629,31699.94
630,31624.2
631,31598.3
632,31587.62
633,31557.7
634,31498.2
635,31427.4
636,31365.04
637,31319.3
638,31276.15
639,31219.09
640,31138.56
641,31047.1
642,30961.56
643,30895.63
644,30846.21
645,30804.52
646,30762.54
647,30719.04
648,30676.55
649,30637.53
650,30603.29
651,30574.17
652,30550.23
653,30522.39
654,30469.18
655,30368.46
656,30217.68
657,30055.66
658,29926.33
659,29858.79
660,29832.07
661,29814.64
662,29780.61
663,29734.69
664,29692.15
665,29666.15
666,29650.71
667,29629.47
668,29587.03
669,29523.58
670,29452.3
671,29386.39
672,29330.3
673,29277.56
674,29221.07
675,29155.38
676,29078.15
677,28987.41
678,28885.78
679,28789.1
680,28715.57
681,28675.66
682,28645.73
683,28592.64
684,28490.81
685,28367.21
686,28271.3
687,28247.47
688,28282.96
689,28328.38
690,28335.79
691,28293
692,28221.14
693,28142.37
694,28070.3
695,28007.03
696,27953.8
697,27905.74
698,27846.01
699,27756.45
700,27634.21
701,27520.6
702,27464.68
703,27496.74
704,27566.82
705,27603.54
706,27548.87
707,27428.9
708,27303.05
709,27225.03
710,27194.01
711,27178.09
712,27146.68
713,27093.81
714,27033.17
715,26978.68
716,26935.49
717,26899.04
718,26864.28
719,26825.83
720,26777.88
721,26714.59
722,26636.57
723,26558.3
724,26495.97
725,26460
726,26443.39
727,26435.87
728,26426.4
729,26400.38
730,26342.31
731,26241.98
732,26121.24
733,26014.06
734,25949.82
735,25918.71
736,25890.5
737,25837.17
738,25760.48
739,25683.09
740,25627.11
741,25596.1
742,25576.32
743,25553.47
744,25516.86
745,25460.24
746,25377.88
747,25279.81
748,25201.96
749,25182.38
750,25231.87
751,25302.02
752,25336.8
753,25300.18
754,25213.86
755,25109.93
756,25014.94
757,24934.21
758,24867.88
759,24816.15
760,24779.45
761,24758.3
762,24750.67
763,24736.5
764,24688.03
765,24582.69
766,24446.65
767,24333.14
768,24290.88
769,24307.31
770,24326.45
771,24294.29
772,24208.61
773,24113.65
774,24053.75
775,24034.31
776,24016.83
777,23961.37
778,23864.25
779,23772.92
780,23738.08
781,23773.95
782,23830.54
783,23851.63
784,23807.15
785,23724.55
786,23638.84
787,23574.28
788,23525.64
789,23482.61
790,23436.32
791,23382.83
792,23319.22
793,23245.7
794,23175.96
795,23127.35
796,23111.46
797,23109
798,23090.21
799,23030.8
800,22942.53
801,22852.14
802,22783.14
803,22731.63
804,22679.88
805,22611.92
806,22530.8
807,22451.21
808,22387.2
809,22343.78
810,22319.34
811,22311.28
812,22302
813,22261.06
814,22159.78
815,22017.06
816,21899.73
817,21874.49
818,21945.27
819,22042.1
820,22091.96
821,22061.27
822,21970.49
823,21843.98
824,21709.43
825,21599.91
826,21548.58
827,21563.59
828,21606.87
829,21635.65
830,21622.7
831,21573.85
832,21499.21
833,21412.04
834,21333.52
835,21285.95
836,21277.13
837,21273.97
838,21236.33
839,21141.6
840,21023.99
841,20929.08
842,20888.63
843,20883.3
844,20881.95
845,20859.69
846,20817.67
847,20763.89
848,20706.78
849,20656.85
850,20625.23
851,20619.23
852,20625.79
853,20625.09
854,20600.7
855,20556.74
856,20505.01
857,20455.29
858,20403.83
859,20341.28
860,20261.24
861,20179.37
862,20121.39
863,20109.02
864,20130.63
865,20158.05
866,20164.99
867,20143.22
868,20094.29
869,20020.61
870,19932.11
871,19843.16
872,19767.71
873,19715.12
874,19691.79
875,19702.01
876,19724.4
877,19720.38
878,19655.22
879,19549.16
880,19461.6
881,19448.53
882,19506.22
883,19585.81
884,19639.34
885,19648.13
886,19616.79
887,19550.94
888,19462.42
889,19368.28
890,19285.37
891,19225.38
892,19195.55
893,19202.11
894,19235.47
895,19271.77
896,19287.5
897,19275.78
898,19245.15
899,19204.6
900,19160.23
901,19115.36
902,19073.13
903,19034.96
904,19000.61
905,18969.77
906,18942.49
907,18919.14
908,18900.25
909,18889.91
910,18895.79
911,18924.76
912,18961.33
913,18967.05
914,18904.53
915,18784.07
916,18665.11
917,18606.84
918,18613.98
919,18635.02
920,18617.61
921,18546.99
922,18446.98
923,18342.6
924,18247.3
925,18162.76
926,18090.06
927,18028.35
928,17974.85
929,17926.79
930,17882.6
931,17841.93
932,17804.58
933,17772.75
934,17750.92
935,17743.25
936,17745.5
937,17745.51
938,17731.39
939,17702.06
940,17666.35
941,17633.11
942,17605.34
943,17580.87
944,17557.33
945,17531.77
946,17500.79
947,17461.39
948,17417.81
949,17380.13
950,17357.98
951,17351.71
952,17354.5
953,17359.51
954,17362.22
955,17359.78
956,17349.57
957,17331.11
958,17305.44
959,17273.75
960,17238.69
961,17203.91
962,17172.72
963,17144.77
964,17117.47
965,17088.79
966,17062.21
967,17044.4
968,17040.67
969,17044.16
970,17041.6
971,17021.65
972,16988.83
973,16955.34
974,16931.8
975,16916.91
976,16904.1
977,16887.14
978,16862.21
979,16826.51
980,16778.6
981,16725.13
982,16675.71
983,16639.1
984,16619.71
985,16620.46
986,16641.55
987,16670.07
988,16689.31
989,16685.33
990,16655.9
991,16601.89
992,16527.64
993,16450.59
994,16391.17
995,16361.19
996,16344.12
997,16317.68
998,16268.69
999,16210.24
1000,16160.04
1001,16128.47
1002,16107.28
1003,16085.35
1004,16057.64
1005,16032.44
1006,16019.83
1007,16025.97
1008,16039.15
1009,16042.52
1010,16024.83
1011,15997.09
1012,15975.89
1013,15971.84
1014,15975
1015,15971.03
1016,15949.95
1017,15914.78
1018,15870.91
1019,15825.54
1020,15790.56
1021,15778.45
1022,15790.86
1023,15805.77
1024,15798.33
1025,15760.51
1026,15715.37
1027,15688.96
1028,15689.29
1029,15696.18
1030,15687.41
1031,15655.55
1032,15612.75
1033,15572.21
1034,15540.04
1035,15514.55
1036,15493.69
1037,15477.2
1038,15466.47
1039,15462.67
1040,15462.58
1041,15459.61
1042,15447.89
1043,15430.46
1044,15416.04
1045,15412.49
1046,15419.45
1047,15432.33
1048,15446.2
1049,15454.19
1050,15448.59
1051,15424.23
1052,15389.29
1053,15356.37
1054,15336.23
1055,15332.38
1056,15346.4
1057,15375.09
1058,15399.89
1059,15399.25
1060,15365.44
1061,15324.87
1062,15308.92
1063,15329.24
1064,15359.58
1065,15369.79
1066,15346.53
1067,15301.62
1068,15248.84
1069,15200.92
1070,15169.26
1071,15164.65
1072,15186.76
1073,15225.32
1074,15269.83
1075,15311.31
1076,15341.82
1077,15355.47
1078,15364.35
1079,15389.97
1080,15449.65
1081,15533.81
1082,15622.35
1083,15696.53
1084,15743.84
1085,15753.61
1086,15723.69
1087,15679.98
1088,15654.09
1089,15661.97
1090,15682.36
1091,15688.76
1092,15665.4
1093,15615.03
1094,15542.41
1095,15459.49
1096,15387.32
1097,15346.16
1098,15328.85
1099,15302.77
1100,15237.84
1101,15146.07
1102,15067.76
1103,15038.12
1104,15047.51
1105,15064.75
1106,15064.38
1107,15052.19
1108,15044.43
1109,15051.66
1110,15063.71
1111,15065.75
1112,15050.43
1113,15028.89
1114,15014.97
1115,15014.88
1116,15021.81
1117,15027.71
1118,15025.76
1119,15010.65
1120,14977.52
1121,14928.28
1122,14870.42
1123,14811.55
1124,14758.95
1125,14719.71
1126,14698.51
1127,14685.1
1128,14663.54
1129,14623.49
1130,14576.67
1131,14540.24
1132,14519.35
1133,14488.62
1134,14418.29
1135,14310.29
1136,14219.76
1137,14204.76
1138,14262.49
1139,14322.08
1140,14314.29
1141,14243.74
1142,14170.03
1143,14147.22
1144,14173.94
1145,14221.9
1146,14263.55
1147,14275.7
1148,14236.51
1149,14141.49
1150,14038.35
1151,13984.31
1152,14002.41
1153,14051.2
1154,14082.98
1155,14080.47
1156,14063.1
1157,14051.49
1158,14051.3
1159,14056.67
1160,14061.18
1161,14056.89
1162,14035.02
1163,13991.64
1164,13945.43
1165,13921.72
1166,13935.56
1167,13973.6
1168,14017.67
1169,14055.87
1170,14086.9
1171,14110.31
1172,14122.19
1173,14115
1174,14082.3
1175,14031.81
1176,13980.32
1177,13942.59
1178,13920.17
1179,13909.51
1180,13905.05
1181,13894.12
1182,13862.57
1183,13808.55
1184,13754.74
1185,13726.01
1186,13722.78
1187,13716.37
1188,13679.22
1189,13621.16
1190,13578.69
1191,13581.53
1192,13610.06
1193,13624.22
1194,13596.18
1195,13542.96
1196,13491.74
1197,13459.68
1198,13443.6
1199,13437.75
1200,13433.74
1201,13420.09
1202,13386.76
1203,13343.74
1204,13314.61
1205,13318.2
1206,13342.69
1207,13364.7
1208,13367.58
1209,13356.52
1210,13341.02
1211,13329.75
1212,13329.79
1213,13347.52
1214,13376.55
1215,13397.95
1216,13395.01
1217,13376.72
1218,13366.13
1219,13381.29
1220,13416.23
1221,13458.06
1222,13494.01
1223,13511.61
1224,13498.8
1225,13456.21
1226,13400.86
1227,13350.02
1228,13310.25
1229,13280.55
1230,13260.52
1231,13254.19
1232,13267.27
1233,13299.98
1234,13336.4
1235,13357.75
1236,13354.5
1237,13331.16
1238,13293.54
1239,13249.07
1240,13206.52
1241,13173.54
1242,13150.04
1243,13132.58
1244,13119.2
1245,13112.77
1246,13117.13
1247,13134.74
1248,13165.79
1249,13209.64
1250,13254.64
1251,13279.75
1252,13268.63
1253,13240.63
1254,13230.53
1255,13257.45
1256,13288.86
1257,13282.09
1258,13227.33
1259,13167.13
1260,13146.04
1261,13163.94
1262,13184.59
1263,13177.74
1264,13158.81
1265,13161.37
1266,13202.86
1267,13253.39
1268,13275.02
1269,13258.45
1270,13234.45
1271,13234.06
1272,13252.53
1273,13260.32
1274,13235.09
1275,13195
1276,13171.46
1277,13181.77
1278,13210.16
1279,13236.48
1280,13251.43
1281,13257.85
1282,13258.98
1283,13256.22
1284,13250
1285,13243.27
1286,13248.66
1287,13280.9
1288,13335.78
1289,13376.8
1290,13367.1
1291,13315.67
1292,13268.36
1293,13263.96
1294,13292.5
1295,13326.08
1296,13345.07
1297,13350.51
1298,13346.39
1299,13328.93
1300,13285.54
1301,13207.85
1302,13129.55
1303,13106.25
1304,13169.1
1305,13261.83
1306,13309.59
1307,13282.85
1308,13221.02
1309,13167.54
1310,13142.41
1311,13149.5
1312,13189.15
1313,13246.38
1314,13301.76
1315,13342.69
1316,13369.83
1317,13385.19
1318,13387.92
1319,13374.68
1320,13344.82
1321,13313.9
1322,13303.42
1323,13326
1324,13373.36
1325,13434.24
1326,13497.21
1327,13550.73
1328,13584.42
1329,13596.33
1330,13588.15
1331,13566.58
1332,13551.7
1333,13565.04
1334,13606.02
1335,13649.33
1336,13671.42
1337,13672.84
1338,13665.43
1339,13659.17
1340,13658.45
1341,13666.58
1342,13683.76
1343,13706.62
1344,13731.08
1345,13749.4
1346,13752
1347,13734.39
1348,13706.98
1349,13682.59
1350,13664.13
1351,13643.02
1352,13611.94
1353,13578.51
1354,13557.47
1355,13558.48
1356,13577.02
1357,13606.07
1358,13637.88
1359,13663.89
1360,13677.47
1361,13685.89
1362,13702.49
1363,13735.48
1364,13780.18
1365,13829.7
1366,13872.64
1367,13893.14
1368,13881.13
1369,13862.73
1370,13877.5
1371,13937.75
1372,13997.96
1373,14008.36
1374,13973.37
1375,13941.81
1376,13954.13
1377,14003.14
1378,14067.25
1379,14124.47
1380,14152.23
1381,14130.75
1382,14074.43
1383,14019.99
1384,13996.92
1385,14006.64
1386,14043.77
1387,14089.34
1388,14106.67
1389,14064.62
1390,13987.5
1391,13926.67
1392,13914.06
1393,13930.12
1394,13947.29
1395,13945.63
1396,13912.4
1397,13841.76
1398,13763.76
1399,13720.34
1400,13723.08
1401,13729.18
1402,13694.96
1403,13634.63
1404,13600.19
1405,13627.22
1406,13691.88
1407,13757.71
1408,13798.64
1409,13800.91
1410,13756.93
1411,13696.69
1412,13665.79
1413,13691.15
1414,13759.81
1415,13852.82
1416,13938.78
1417,13976.92
1418,13944.19
1419,13887.11
1420,13867.99
1421,13904.83
1422,13959.47
1423,13994.18
1424,14000.4
1425,13982.25
1426,13945.86
1427,13901.63
1428,13860.45
1429,13832.58
1430,13827.82
1431,13847.69
1432,13863.56
1433,13841.16
1434,13785.27
1435,13746.19
1436,13766.4
1437,13822.92
1438,13867.86
1439,13872.78
1440,13845.14
1441,13797.99
1442,13762.88
1443,13782.64
1444,13872.82
1445,13969.51
1446,13998.06
1447,13958.44
1448,13919.28
1449,13934.36
1450,13977.12
1451,13998.88
1452,13984.8
1453,13965.92
1454,13970.48
1455,13982.82
1456,13968.54
1457,13920.4
1458,13884.9
1459,13909.12
1460,13975.68
1461,14027.03
1462,14028.95
1463,14015.47
1464,14030.22
1465,14070.36
1466,14092.78
1467,14068.6
1468,14032.34
1469,14033.25
1470,14075.12
1471,14108.42
1472,14092.58
1473,14055.99
1474,14050.76
1475,14095.05
1476,14154.13
1477,14192.03
1478,14199.68
1479,14180.7
1480,14146.76
1481,14125.62
1482,14142.82
1483,14178.47
1484,14185.12
1485,14137.51
1486,14068.95
1487,14019.89
1488,13996.52
1489,13979.15
1490,13955.12
1491,13936.88
1492,13940.58
1493,13953.64
1494,13937.09
1495,13869.61
1496,13804.85
1497,13812.81
1498,13892.09
1499,13963.63
1500,13964.57
1501,13929.71
1502,13922.13
1503,13962.82
1504,14019.7
1505,14061.2
1506,14078.28
1507,14069.81
1508,14041.4
1509,14008.2
1510,13985.38
1511,13983.23
1512,14009.98
1513,14061.99
1514,14117.01
1515,14154.33
1516,14176.35
1517,14195.36
1518,14215.56
1519,14227.2
1520,14222.34
1521,14217.03
1522,14238.25
1523,14289.4
1524,14331.65
1525,14327.39
1526,14285.18
1527,14235.79
1528,14202.64
1529,14195.18
1530,14218.75
1531,14256.53
1532,14281.07
1533,14284.39
1534,14294.61
1535,14337.76
1536,14391.32
1537,14409.46
1538,14375.71
1539,14326.94
1540,14300.92
1541,14298.12
1542,14301.7
1543,14304.88
1544,14318.36
1545,14351.57
1546,14392.09
1547,14418.04
1548,14420.31
1549,14410.31
1550,14401.13
1551,14404.27
1552,14430.31
1553,14473.14
1554,14502.36
1555,14493.44
1556,14467.46
1557,14461.12
1558,14478.54
1559,14481.6
1560,14443.54
1561,14408.63
1562,14440.86
1563,14532.54
1564,14595.36
1565,14568.08
1566,14521.67
1567,14557.39
1568,14680.44
1569,14804.27
1570,14862.09
1571,14868.06
1572,14852.71
1573,14831.44
1574,14807.76
1575,14791.21
1576,14808.6
1577,14884.35
1578,14980.48
1579,15019.4
1580,14979.61
1581,14961.42
1582,15061.51
1583,15211.18
1584,15260.14
1585,15155.89
1586,15009.06
1587,14929.74
1588,14928.07
1589,14976.36
1590,15045.22
1591,15103.3
1592,15130.79
1593,15159.81
1594,15234.44
1595,15348.01
1596,15446.33
1597,15493.24
1598,15514.86
1599,15546.35
1600,15584.26
1601,15598.97
1602,15581.21
1603,15566.95
1604,15591.82
1605,15640.71
1606,15674.82
1607,15685.44
1608,15709.29
1609,15776.02
1610,15859.34
1611,15916.79
1612,15948.28
1613,15997.27
1614,16085.3
1615,16155.09
1616,16139.09
1617,16047.22
1618,15942.48
1619,15867.35
1620,15818.92
1621,15788.55
1622,15767.23
1623,15745.81
1624,15716.1
1625,15671.29
1626,15604.28
1627,15506.8
1628,15371.93
1629,15222.3
1630,15105.45
1631,15048.96
1632,15028
1633,15013.13
1634,15005.85
1635,15023.24
1636,15063
1637,15093.6
1638,15091.35
1639,15081.61
1640,15102.41
1641,15155.89
1642,15212.27
1643,15239.99
1644,15206.1
1645,15087.64
1646,14950.71
1647,14905.58
1648,14977.21
1649,15066.25
1650,15082.43
1651,15020.07
1652,14898.87
1653,14772.77
1654,14723.46
1655,14788.74
1656,14904.33
1657,14997.57
1658,15039.21
1659,15019.65
1660,14955.5
1661,14895
1662,14879.75
1663,14921.07
1664,15019.28
1665,15123.71
1666,15151.77
1667,15086.58
1668,15025.3
1669,15050.94
1670,15116.12
1671,15135.97
1672,15096.01
1673,15043.46
1674,15017.49
1675,15033.38
1676,15097.67
1677,15179.31
1678,15231.79
1679,15230.33
1680,15174.89
1681,15083.48
1682,15025
1683,15066.81
1684,15169.58
1685,15237.19
1686,15228.54
1687,15180.21
1688,15130.44
1689,15101.51
1690,15109.35
1691,15138.85
1692,15155.1
1693,15145.95
1694,15137.03
1695,15149.5
1696,15169.07
1697,15172.81
1698,15154.23
1699,15119
1700,15085.19
1701,15092.75
1702,15165.44
1703,15236.37
1704,15218.62
1705,15144.17
1706,15137.13
1707,15241.78
1708,15345.45
1709,15345.4
1710,15279.65
1711,15227.52
1712,15218.48
1713,15242.44
1714,15281.78
1715,15306.77
1716,15293.95
1717,15258.06
1718,15224.8
1719,15206.55
1720,15205.56
1721,15219.21
1722,15236.72
1723,15249.29
1724,15261.38
1725,15279.66
1726,15291.81
1727,15272.58
1728,15222.23
1729,15182.28
1730,15187.41
1731,15230.06
1732,15290.54
1733,15330.43
1734,15301.22
1735,15207
1736,15123.8
1737,15111.37
1738,15159.74
1739,15243.83
1740,15329.63
1741,15379.88
1742,15393.5
1743,15409.25
1744,15447.1
1745,15474.95
1746,15460.47
1747,15419
1748,15382.11
1749,15350.86
1750,15300.75
1751,15238.82
1752,15231.82
1753,15318.82
1754,15391.17
1755,15317.94
1756,15163.11
1757,15107.61
1758,15207.05
1759,15349.73
1760,15437.88
1761,15448.08
1762,15379.98
1763,15300.47
1764,15299.73
1765,15373.43
1766,15432.78
1767,15424.57
1768,15368.24
1769,15297.41
1770,15270.97
1771,15342.86
1772,15449.39
1773,15462.87
1774,15380.1
1775,15345.92
1776,15436.17
1777,15534.68
1778,15526.45
1779,15464.14
1780,15450.34
1781,15488.35
1782,15511.22
1783,15483.91
1784,15419.31
1785,15344.2
1786,15315.29
1787,15377.79
1788,15465.88
1789,15476.2
1790,15416.58
1791,15383.54
1792,15420.26
1793,15481.69
1794,15527.13
1795,15554.94
1796,15568.8
1797,15555.35
1798,15496.06
1799,15406.49
1800,15330.13
1801,15293.14
1802,15292.86
1803,15323.55
1804,15377.97
1805,15446.73
1806,15508.88
1807,15540.17
1808,15537.88
1809,15516.24
1810,15499.49
1811,15525.64
1812,15600.63
1813,15638.34
1814,15564.77
1815,15463.96
1816,15462.39
1817,15532.54
1818,15548.12
1819,15489.94
1820,15470.36
1821,15544.35
1822,15620.77
1823,15615.4
1824,15560.7
1825,15515.96
1826,15499.31
1827,15507.95
1828,15540.76
1829,15598.13
1830,15663.27
1831,15691.07
1832,15656.85
1833,15605.75
1834,15583.75
1835,15565.62
1836,15506.84
1837,15434.62
1838,15419.75
1839,15460.65
1840,15474.37
1841,15424.97
1842,15376.35
1843,15380.8
1844,15408.9
1845,15420.79
1846,15425.94
1847,15451.41
1848,15496.92
1849,15543.07
1850,15568.19
1851,15548.56
1852,15484.08
1853,15421.72
1854,15400.33
1855,15410.93
1856,15434.85
1857,15457.99
1858,15469.25
1859,15472.38
1860,15480.43
1861,15495.92
1862,15509.84
1863,15504.72
1864,15449.37
1865,15338.86
1866,15249.34
1867,15250.52
1868,15303.87
1869,15343.49
1870,15364.76
1871,15393.81
1872,15431.71
1873,15458.44
1874,15465.13
1875,15458.78
1876,15450.11
1877,15455.41
1878,15478.6
1879,15477.94
1880,15414.7
1881,15326.84
1882,15274.86
1883,15266.04
1884,15277.34
1885,15292.37
1886,15301.2
1887,15302.43
1888,15306.03
1889,15321.23
1890,15353.92
1891,15396
1892,15394.36
1893,15313.08
1894,15257.65
1895,15352.08
1896,15472.97
1897,15389.59
1898,15167.54
1899,15093.29
1900,15205.48
1901,15255.47
1902,15158.34
1903,15131.85
1904,15296.17
1905,15450.93
1906,15423.8
1907,15343.14
1908,15376.35
1909,15492.75
1910,15589.67
1911,15568.98
1912,15350.25
1913,15086.45
1914,15100.45
1915,15384.46
1916,15562.33
1917,15463.39
1918,15270.68
1919,15139.96
1920,15095.23
1921,15135.45
1922,15236.24
1923,15358.35
1924,15415.23
1925,15330.89
1926,15201.88
1927,15180.4
1928,15231.52
1929,15217.37
1930,15142.46
1931,15125.29
1932,15179.07
1933,15197.26
1934,15141.49
1935,15085.92
1936,15082.94
1937,15120.84
1938,15169.51
1939,15169.44
1940,15083.35
1941,14980.9
1942,14945.56
1943,14993.91
1944,15108.42
1945,15184.13
1946,15096.51
1947,14933.98
1948,14898.56
1949,14972.68
1950,14972.73
1951,14888.9
1952,14888.63
1953,14996.64
1954,15042.06
1955,14954.51
1956,14854.5
1957,14829.01
1958,14852.48
1959,14877.99
1960,14840.06
1961,14713.86
1962,14633.69
1963,14715.4
1964,14818.34
1965,14770.38
1966,14665.33
1967,14670.77
1968,14750.13
1969,14778.26
1970,14710.69
1971,14557.63
1972,14425.36
1973,14478.08
1974,14676.81
1975,14807.54
1976,14784.5
1977,14665.36
1978,14521.06
1979,14429.87
1980,14427.39
1981,14482.62
1982,14560.21
1983,14627.52
1984,14665.99
1985,14687.53
1986,14700.84
1987,14695.26
1988,14653.3
1989,14546.08
1990,14376.49
1991,14274.64
1992,14343.05
1993,14428.99
1994,14357.21
1995,14205.65
1996,14117.06
1997,14125.02
1998,14214.65
1999,14319.23
2000,14359.41
2001,14340.45
2002,14305.15
2003,14249.62
2004,14152.43
2005,14095.52
2006,14207.64
2007,14361.04
2008,14269.88
2009,14039.32
2010,14062.03
2011,14290.08
2012,14302.66
2013,14063.87
2014,13908.78
2015,13946.46
2016,14036.94
2017,14106.68
2018,14169.08
2019,14190.57
2020,14078.22
2021,13878.22
2022,13819.81
2023,13943.62
2024,14011.14
2025,13919.72
2026,13799.47
2027,13739.68
2028,13735.26
2029,13753.02
2030,13727.62
2031,13648.71
2032,13605.56
2033,13626.19
2034,13611.36
2035,13538.33
2036,13550.34
2037,13684.02
2038,13738.22
2039,13622.28
2040,13513.81
2041,13524.19
2042,13570.73
2043,13566.21
2044,13461.18
2045,13271.97
2046,13138.37
2047,13130.14
2048,13145.34
2049,13120.1
2050,13108.7
2051,13132.02
2052,13116.85
2053,13043.47
2054,13017.52
2055,13065.89
2056,13038.45
2057,12892.37
2058,12819.56
2059,12899.55
2060,12965.45
2061,12921.3
2062,12837.73
2063,12785.36
2064,12806.73
2065,12885.47
2066,12917.85
2067,12841.1
2068,12667.01
2069,12520.53
2070,12666.79
2071,13021.34
2072,13043.41
2073,12648.37
2074,12332.85
2075,12284.42
2076,12307.53
2077,12314.36
2078,12348.53
2079,12419.22
2080,12496.1
2081,12530.95
2082,12467.18
2083,12337.37
2084,12238.6
2085,12189.41
2086,12152.19
2087,12097.7
2088,12009.34
2089,11934.2
2090,11940.69
2091,11975.14
2092,11941.78
2093,11880.87
2094,11871.7
2095,11868.11
2096,11800.4
2097,11724.59
2098,11706.91
2099,11676.93
2100,11570.23
2101,11487.24
2102,11517.4
2103,11592.85
2104,11635.3
2105,11621.07
2106,11511.97
2107,11219.78
2108,10849.7
2109,10872.03
2110,11332.04
2111,11562.98
2112,11354.18
2113,11157.82
2114,11151.02
2115,11170.65
2116,11148.54
2117,11114.91
2118,11075.46
2119,11014.36
2120,10905.4
2121,10728
2122,10554.67
2123,10488.51
2124,10540.65
2125,10658.33
2126,10651.81
2127,10406.19
2128,10245.54
2129,10390.26
2130,10457.34
2131,10228.26
2132,10100.95
2133,10251.72
2134,10322.87
2135,10192.78
2136,10129.74
2137,10164.14
2138,10057.57
2139,9847.777
2140,9785.882
2141,9807.77
2142,9685.226
2143,9532.429
2144,9575.598
2145,9711.993
2146,9773.047
2147,9821.167
2148,9908.266
2149,9863.555
2150,9595.404
2151,9288.179
2152,9076.381
2153,8948.857
2154,8929.721
2155,9092.561
2156,9294.671
2157,9227.112
2158,9004.564
2159,8979.649
2160,9088.979
2161,9098.393
2162,8961.561
2163,8715.848
2164,8469.779
2165,8353.194
2166,8503.986
2167,8802.626
2168,8668.47
2169,8157.819
2170,8174.427
2171,8611.957
2172,8474.063
2173,7946.989
2174,7878.324
2175,8125.078
2176,8199.905
2177,8139.373
2178,8068.828
2179,7889.166
2180,7591.858
2181,7451.957
2182,7535.243
2183,7562.456
2184,7466.447
2185,7402.831
2186,7371.483
2187,7285.75
2188,7234.458
2189,7309.075
2190,7252.194
2191,6894.511
2192,6610.283
2193,6588.523
2194,6499.062
2195,6355.773
2196,6619.663
2197,7030.76
2198,6842.658
2199,6372.714
2200,6332.71
2201,6519.78
2202,6563.022
2203,6527.437
2204,6494.124
2205,6403.202
2206,6248.701
2207,6112.837
2208,6058.736
2209,6107.294
2210,6089.999
2211,5843.511
2212,5700.515
2213,5918.207
2214,6096.191
2215,5970.277
2216,5718.954
2217,5468.756
2218,5252.894
2219,5237.005
2220,5584.375
2221,5847.252
2222,5603.958
2223,5429.139
2224,5618.185
2225,5407.689
2226,4775.21
2227,4732.639
2228,5165.652
2229,5189.04
2230,4969.349
2231,4973.615
2232,4932.626
2233,4640.479
2234,4447.302
2235,4461.715
2236,4398.751
2237,4284.274
2238,4363.334
2239,4594.731
2240,4777.935
2241,4597.319
2242,4074.719
2243,3968.04
2244,4346.03
2245,4417.325
2246,4148.138
2247,3982.211
2248,3958.46
2249,3956.475
2250,3841.239
2251,3614.403
2252,3503.762
2253,3573.895
2254,3711.084
2255,3759.55
2256,3608.047
2257,3416.907
2258,3334.424
2259,3319.373
2260,3331.588
2261,3356.256
2262,3304.067
2263,3088.517
2264,2909.763
2265,2956.971
2266,3122.311
2267,3172.038
2268,2808.053
2269,2345.615
2270,2424.69
2271,2792.467
2272,3001.875
2273,3080.886
2274,3069.019
2275,2894.179
2276,2598.587
2277,2336.719
2278,2350.394
2279,2677.556
2280,2633.889
2281,2117.508
2282,2059.971
2283,2446.648
2284,2567.946
2285,2408.756
2286,2177.085
2287,1931.632
2288,1796.105
2289,1986.637
2290,2265.09
2291,2166.86
2292,1750.668
2293,1338.788
2294,1439.16
2295,1852.924
2296,1643.399
2297,1147.286
2298,1182.609
2299,1384.847
2300,1380.658
