400,71280.25
401,71145.48
402,71434.53
403,71997.05
404,72663.34
405,73266.75
406,73651.73
407,73666.48
408,73174.29
409,72253.35
410,71147.23
411,70101.82
412,69279.92
413,68684.63
414,68300.66
415,68120.59
416,68178.2
417,68520.84
418,69187.05
419,70065.38
420,70917.33
421,71501.88
422,71647.32
423,71325.94
424,70528.38
425,69313.6
426,68130.19
427,67562.42
428,68147.82
429,69604.75
430,70931.4
431,71109.85
432,69737.26
433,67719.43
434,66126.02
435,65822.02
436,66538.09
437,67608.52
438,68394.83
439,68695.57
440,68684.05
441,68544.45
442,68390.66
443,68194.46
444,67910.52
445,67520.48
446,67146.55
447,66956.2
448,67101.4
449,67504.99
450,67909.71
451,68056.46
452,67858.86
453,67543.71
454,67369.94
455,67508.68
456,67738.26
457,67726.95
458,67183.98
459,66310.73
460,65642.04
461,65708.33
462,66565.95
463,67546.59
464,67923.8
465,67245.44
466,66052
467,65107.75
468,65082.02
469,65780.09
470,66533.78
471,66688.49
472,66102.05
473,65255.38
474,64664.43
475,64656.06
476,65038.68
477,65532.76
478,65882.52
479,65984.21
480,65797.29
481,65288.48
482,64561.29
483,63844.07
484,63367.41
485,63198.51
486,63081.04
487,62721.73
488,61944.23
489,61107.17
490,60721.71
491,61235.36
492,62379.43
493,63423.52
494,63645.65
495,62870.91
496,61668.71
497,60658.97
498,60255.58
499,60264.75
500,60381.25
501,60341.3
502,60159.2
503,59966.79
504,59894.75
505,60056.6
506,60550.46
507,61471.32
508,62699.02
509,63716.94
510,63968.22
511,63102.17
512,61593.26
513,60121.86
514,59304.68
515,59189.45
516,59512.77
517,60012.56
518,60516.38
519,60950.73
520,61247.89
521,61380.19
522,61410.17
523,61412.36
524,61430.97
525,61363.02
526,61061.2
527,60401.72
528,59520.98
529,58719.3
530,58290.32
531,58252.71
532,58284.07
533,58042.95
534,57422.11
535,56894.46
536,57019.14
537,58152.27
538,59593.17
539,60298.31
540,59345.37
541,57204.82
542,55260.25
543,54872.61
544,56247.73
545,58140.53
546,59221.43
547,58770.39
548,57552.91
549,56554.27
550,56530.72
551,57105.05
552,57546.37
553,57213.61
554,56414.92
555,56042.11
556,56957.64
557,59009.21
558,60876.68
559,61186.21
560,59403.75
561,56811.63
562,54924.03
563,54836.08
564,55866.55
565,56861.08
566,56799.83
567,55806.46
568,54599.11
569,53873.82
570,53821.71
571,54151.86
572,54557.32
573,54883.31
574,55238.48
575,55757.21
576,56484.73
577,57175.31
578,57524.95
579,57299.01
580,56699.47
581,56099.39
582,55843.93
583,55920.1
584,56058.14
585,55990.24
586,55676.25
587,55363.84
588,55317.08
589,55593.95
590,55787.35
591,55428.23
592,54238.05
593,52734.6
594,51642.82
595,51584.84
596,52378.26
597,53453.04
598,54259.71
599,54598.53
600,54564.13
601,54260.06
602,53800.03
603,53312.6
604,52926.66
605,52707.05
606,52558.04
607,52359.46
608,52054.28
609,51871.58
610,52120.85
611,53041.25
612,54286.33
613,55216.33
614,55228.31
615,54348.01
616,53134.59
617,52155.43
618,51697.72
619,51654.27
620,51888.65
621,52269.29
622,52674.98
623,52986.69
624,53083.27
625,52832.99
626,52101.93
627,50827.24
628,49468.11
629,48715.52
630,49192.13
631,50587.55
632,51904.2
633,52159.7
634,51223.9
635,49978.91
636,49357.3
637,49796.25
638,50782.53
639,51697.36
640,52097.18
641,52092.77
642,51904.85
643,51717.29
644,51519.05
645,51233.42
646,50804.41
647,50369.46
648,50171.98
649,50437.53
650,51070.98
651,51699.27
652,51948.58
653,51724.22
654,51307.84
655,51005.53
656,50987.69
657,51138.31
658,51305.46
659,51352.64
660,51194.2
661,50755.7
662,50012.13
663,49212.75
664,48700.55
665,48767.75
666,49247.15
667,49722.87
668,49803.79
669,49522.03
670,49259.44
671,49395.48
672,49918.7
673,50332.04
674,50114.16
675,49137.42
676,48011.19
677,47422.75
678,47767.61
679,48606.48
680,49352.92
681,49529.38
682,49137.71
683,48314.2
684,47217.5
685,46170.11
686,45563.91
687,45745.88
688,46562.01
689,47537.81
690,48210.84
691,48425.07
692,48310.44
693,48006.81
694,47635.84
695,47294.82
696,47078.23
697,47000.63
698,46920.12
699,46677.39
700,46219.23
701,45798.17
702,45720.45
703,46185.29
704,46934.47
705,47587.71
706,47826.26
707,47718.93
708,47488.09
709,47339.6
710,47321.98
711,47393.99
712,47506.87
713,47505.27
714,47148.58
715,46209.97
716,44887.88
717,43854.62
718,43794.48
719,44815.71
720,46137.2
721,46907.73
722,46718.73
723,46112.34
724,45751.68
725,46053.46
726,46691.05
727,47198.66
728,47206.61
729,46752.88
730,45985.19
731,45067.79
732,44270.75
733,43903.35
734,44216.27
735,44952.09
736,45589.47
737,45648.21
738,45188.45
739,44650.15
740,44456.82
741,44570.82
742,44522.25
743,43841.6
744,42588.57
745,41479.74
746,41261.9
747,42157.3
748,43527.85
749,44659.83
750,45120.92
751,45089.24
752,44822.54
753,44500.06
754,44074.39
755,43457.25
756,42634.57
757,41882.02
758,41545.04
759,41868.58
760,42576.29
761,43222.5
762,43434
763,43336.82
764,43271.1
765,43536.77
766,44053.74
767,44530.76
768,44692.49
769,44489.1
770,44030.9
771,43434.49
772,42880.48
773,42606.93
774,42841.05
775,43467.44
776,43984.34
777,43880.68
778,43077.15
779,42103.56
780,41529.73
781,41608.76
782,42036.03
783,42451.95
784,42622.84
785,42591.54
786,42437.63
787,42240.29
788,42078.08
789,42029.12
790,42115.75
791,42166.62
792,41968.96
793,41399.2
794,40720.39
795,40300.01
796,40419.43
797,40897.75
798,41397.99
799,41629.91
800,41613.03
801,41495.79
802,41410.45
803,41352.98
804,41250.38
805,41033.46
806,40676.63
807,40180.8
808,39558.01
809,38968.18
810,38678.11
811,38932.51
812,39561.71
813,40041.19
814,39860.58
815,39056.93
816,38218.49
817,37942.17
818,38411.71
819,39324.23
820,40351.1
821,41204.93
822,41654.29
823,41477.5
824,40754.98
825,40049.19
826,39959.01
827,40652.11
828,41500.31
829,41794.12
830,41189.25
831,40119.15
832,39115.03
833,38534.46
834,38310.1
835,38310.6
836,38419.87
837,38563.88
838,38676.29
839,38708.05
840,38665.8
841,38567.45
842,38443.26
843,38370.03
844,38435.02
845,38665.12
846,38831.89
847,38640.28
848,37918.6
849,37083.25
850,36725.13
851,37282.85
852,38382.12
853,39376.74
854,39718.32
855,39439.08
856,38788.76
857,38014.54
858,37350.59
859,37025.02
860,37217.14
861,37743.48
862,38255.39
863,38441.02
864,38293.65
865,37958.93
866,37580.7
867,37281.07
868,37170.16
869,37336.81
870,37657.4
871,37884.02
872,37800.95
873,37562.61
874,37556.13
875,38120.66
876,38975.46
877,39423.11
878,38827.54
879,37446.84
880,36178.25
881,35869.26
882,36486.76
883,37331.53
884,37729.06
885,37613.64
886,37404.42
887,37503.39
888,37818.66
889,37846.33
890,37109.82
891,35823.38
892,34802.14
893,34834.3
894,35859.7
895,37052.38
896,37594.44
897,37330.14
898,36721.32
899,36238.03
900,36056.7
901,36072.16
902,36166.62
903,36185.6
904,35938.57
905,35249.84
906,34305.63
907,33654.14
908,33831.04
909,34749.71
910,35692.14
911,35937.32
912,35308.1
913,34184.45
914,32968.71
915,32026.66
916,31686.4
917,32252.01
918,33512.73
919,34727.17
920,35160.32
921,34757.02
922,34160.28
923,34021.36
924,34484.67
925,35178.33
926,35717.21
927,35916.63
928,35793.48
929,35377.35
930,34783.9
931,34214.07
932,33864.21
933,33768.84
934,33805.83
935,33850.61
936,33852.32
937,33829.68
938,33803.68
939,33787.45
940,33787.04
941,33809.12
942,33878.98
943,34038.26
944,34325.45
945,34715.85
946,35131.12
947,35491.61
948,35719.77
949,35739.81
950,35487.09
951,35061.44
952,34690.17
953,34586.03
954,34720.74
955,34888.67
956,34893.53
957,34704.62
958,34406.41
959,34084.33
960,33810.91
961,33650.21
962,33654.9
963,33757.93
964,33819.16
965,33720.34
966,33566.2
967,33588.27
968,33975.69
969,34528.91
970,34843.69
971,34589.96
972,34048.13
973,33794.88
974,34291.05
975,35142.32
976,35573.98
977,34953.66
978,33589.74
979,32172.07
980,31304.81
981,31086.84
982,31430.94
983,32216.51
984,33145.12
985,33860.13
986,34085.26
987,33922.23
988,33584.53
989,33260.73
990,33036.64
991,32970.7
992,33088.45
993,33292.83
994,33458.45
995,33491.6
996,33402.02
997,33220.64
998,32971.89
999,32661.58
1000,32292.22
1001,31888.27
1002,31530.02
1003,31306.07
1004,31270.7
1005,31402.36
1006,31669.36
1007,32026.55
1008,32366.17
1009,32562.67
1010,32535.41
1011,32382.82
1012,32247.88
1013,32230.15
1014,32279.58
1015,32313.93
1016,32278.47
1017,32199.84
1018,32119.66
1019,32067.42
1020,32042.04
1021,32037.57
1022,32039.85
1023,32016.84
1024,31934.63
1025,31802.52
1026,31709.4
1027,31751.05
1028,31928.52
1029,32094.74
1030,32093.28
1031,31896.26
1032,31645.72
1033,31489.98
1034,31437.35
1035,31340.46
1036,31054.03
1037,30632.87
1038,30317.72
1039,30337.7
1040,30648.96
1041,30997
1042,31148.91
1043,31173.8
1044,31332.62
1045,31843.78
1046,32529.94
1047,33009.21
1048,32959.65
1049,32474.11
1050,31817.92
1051,31236.92
1052,30873.51
1053,30835.73
1054,31174.39
1055,31704.72
1056,32181.76
1057,32438
1058,32552.47
1059,32652.79
1060,32774.36
1061,32724.56
1062,32278.56
1063,31449.6
1064,30707.92
1065,30565.96
1066,31061.29
1067,31521.91
1068,31241.52
1069,30205.28
1070,29201.9
1071,29024.37
1072,29707.21
1073,30601.8
1074,31075.91
1075,31006.43
1076,30622.72
1077,30150.16
1078,29719.26
1079,29410.58
1080,29298.01
1081,29416.74
1082,29786.76
1083,30367.34
1084,30839.48
1085,30805.18
1086,30084.47
1087,29214.77
1088,28878.98
1089,29438.7
1090,30492.45
1091,31530.19
1092,32188.32
1093,32356.17
1094,31954.11
1095,31111.33
1096,30221.8
1097,29680.87
1098,29579.97
1099,29728.6
1100,29933.26
1101,30091.56
1102,30162.52
1103,30115.77
1104,29996.63
1105,29886.73
1106,29853.75
1107,29889.59
1108,29960.81
1109,30034.31
1110,30078.06
1111,30060.37
1112,29953.92
1113,29742.28
1114,29411.65
1115,29026.02
1116,28782.32
1117,28884.19
1118,29338.9
1119,29920.29
1120,30395.99
1121,30653.19
1122,30678.03
1123,30471.24
1124,30147.98
1125,29888.39
1126,29851.86
1127,30066.49
1128,30510.44
1129,31110.41
1130,31589.92
1131,31622.92
1132,31083.09
1133,30353.72
1134,29894.75
1135,29921.02
1136,30236.21
1137,30606.7
1138,30852.9
1139,30855.66
1140,30516.38
1141,29982.34
1142,29583.87
1143,29613.19
1144,30019.46
1145,30585.1
1146,31077.62
1147,31195.8
1148,30617.67
1149,29278.21
1150,27888.09
1151,27298.71
1152,27854.97
1153,28945.25
1154,29863.68
1155,30290.2
1156,30370.41
1157,30274.55
1158,30126.65
1159,30015.02
1160,30014.03
1161,30092.73
1162,30168.99
1163,30166.41
1164,30036.86
1165,29740.64
1166,29317.4
1167,29027.02
1168,29164.15
1169,29792.42
1170,30587.33
1171,31194.82
1172,31445.74
1173,31362.86
1174,30983.79
1175,30414.38
1176,29804.09
1177,29291.08
1178,28940.06
1179,28787.73
1180,28839.86
1181,28994.73
1182,29127.79
1183,29178.27
1184,29213.25
1185,29313.52
1186,29510.72
1187,29777.96
1188,30085.67
1189,30414.18
1190,30750.81
1191,31064.08
1192,31194.43
1193,30929.37
1194,30178.63
1195,29298.97
1196,28747.78
1197,28762.69
1198,29135.38
1199,29605.03
1200,29958.79
1201,30039.84
1202,29721.62
1203,29214.22
1204,28955.43
1205,29295.73
1206,30024.76
1207,30720.07
1208,31046.83
1209,30953.29
1210,30446.23
1211,29687.73
1212,29110.88
1213,29154.39
1214,29772.31
1215,30443.16
1216,30677.97
1217,30481.71
1218,30129.37
1219,29865.18
1220,29777.46
1221,29909.25
1222,30256.46
1223,30702.61
1224,31114.84
1225,31363.08
1226,31320.94
1227,30880.27
1228,30170.07
1229,29486.21
1230,29092.4
1231,29037.8
1232,29291.98
1233,29790.72
1234,30370.16
1235,30849.03
1236,31106.24
1237,31112.71
1238,30852.71
1239,30402.46
1240,29913.11
1241,29530.86
1242,29351.65
1243,29450.16
1244,29836.88
1245,30310.91
1246,30629.34
1247,30665.34
1248,30482.88
1249,30164.88
1250,29814.52
1251,29552.24
1252,29485.91
1253,29629.27
1254,29955.3
1255,30378.86
1256,30624.79
1257,30384.09
1258,29697.95
1259,29166.38
1260,29392.32
1261,30207.92
1262,30821.88
1263,30580.09
1264,29836.13
1265,29344.55
1266,29581.93
1267,30207.85
1268,30738.54
1269,30949.16
1270,30977.74
1271,30980.35
1272,30994.19
1273,30974.07
1274,30863.88
1275,30559.42
1276,29941.39
1277,29097.72
1278,28601.35
1279,29069.72
1280,30396.5
1281,31667.8
1282,32018.9
1283,31432.96
1284,30347.02
1285,29216.85
1286,28550.68
1287,28863.63
1288,30162.54
1289,31587.9
1290,32239.53
1291,31942.44
1292,31105.86
1293,30141.6
1294,29374.88
1295,29099.12
1296,29461.13
1297,30240.12
1298,31157.07
1299,31896.54
1300,32101.79
1301,31502.01
1302,30610.83
1303,30351.82
1304,31232.82
1305,32278.1
1306,32201.16
1307,30757.18
1308,29285.84
1309,29145.09
1310,30203.4
1311,31302.05
1312,31524.29
1313,31197.45
1314,31012.63
1315,31303.67
1316,31711.78
1317,31820.09
1318,31597.19
1319,31341.68
1320,31311.36
1321,31455.94
1322,31612.17
1323,31673.63
1324,31667.59
1325,31640.16
1326,31631.02
1327,31673.43
1328,31784.75
1329,31872.67
1330,31797.89
1331,31500.1
1332,31131.04
1333,30873.72
1334,30794.78
1335,30831.22
1336,30918.12
1337,31029.68
1338,31158.47
1339,31289.78
1340,31387.79
1341,31414.75
1342,31392.26
1343,31411.39
1344,31554.93
1345,31805.21
1346,32095.79
1347,32354.55
1348,32494.13
1349,32428.28
1350,32196.86
1351,31986.3
1352,31954.17
1353,31963.56
1354,31738.4
1355,31186.9
1356,30733.18
1357,30872.49
1358,31585.62
1359,32290.59
1360,32455.65
1361,32119.74
1362,31569.35
1363,31052.44
1364,30716.83
1365,30691.62
1366,31022.87
1367,31675.8
1368,32571.95
1369,33389.79
1370,33717.89
1371,33456.41
1372,33166.88
1373,33448.64
1374,34110.38
1375,34311.98
1376,33463.73
1377,32290.68
1378,31908.45
1379,32689.57
1380,33738.79
1381,34114.4
1382,33814.11
1383,33448.73
1384,33487.88
1385,33841.43
1386,34289.83
1387,34574.73
1388,34387.49
1389,33509.33
1390,32486.22
1391,32236.88
1392,33174.84
1393,34383.14
1394,34773.3
1395,34221.13
1396,33517.63
1397,33349.94
1398,33634.3
1399,34027.23
1400,34261.49
1401,34207.84
1402,33778.29
1403,33205.83
1404,32933.29
1405,33246.76
1406,33874.67
1407,34428.11
1408,34646.09
1409,34419.15
1410,33698.39
1411,32788.75
1412,32142.38
1413,32063.38
1414,32539.63
1415,33500.11
1416,34611.82
1417,35346.6
1418,35355.71
1419,35007.75
1420,34836.17
1421,35009.1
1422,35231.92
1423,35205.25
1424,34813.86
1425,34022.82
1426,32933.09
1427,31934.36
1428,31437.27
1429,31610.83
1430,32448.79
1431,33809.97
1432,35077.44
1433,35546.48
1434,35206.21
1435,34853.45
1436,35171.74
1437,35845.35
1438,36178.69
1439,35852.01
1440,35237.95
1441,34764.5
1442,34645.3
1443,34963.9
1444,35672.6
1445,36349.77
1446,36530.5
1447,36254.27
1448,36025.02
1449,36221.9
1450,36571.39
1451,36621.28
1452,36254.73
1453,35809.77
1454,35601.81
1455,35549.82
1456,35403.09
1457,35123.37
1458,35091.9
1459,35686.46
1460,36688.89
1461,37509.17
1462,37741.83
1463,37524.66
1464,37091.06
1465,36665.84
1466,36466.43
1467,36650.46
1468,37131.7
1469,37758.11
1470,38261.8
1471,38239.31
1472,37423.38
1473,36368.62
1474,35910.43
1475,36276.48
1476,36749.19
1477,36643.91
1478,36187.36
1479,36032.72
1480,36473.53
1481,37069.73
1482,37342.35
1483,37357.19
1484,37509.75
1485,37974.96
1486,38343.62
1487,38152.05
1488,37522.13
1489,37018.6
1490,37034.74
1491,37365.6
1492,37690.13
1493,37811.38
1494,37646.31
1495,37196.76
1496,36787.84
1497,36812.24
1498,37267.64
1499,37721.94
1500,37824
1501,37722.2
1502,37710.73
1503,37916.04
1504,38253.06
1505,38616.29
1506,38863.18
1507,38840.5
1508,38528.05
1509,38095.18
1510,37725.05
1511,37591.95
1512,37863.54
1513,38480.43
1514,39026.14
1515,39127.63
1516,38953.29
1517,38902.63
1518,39084.37
1519,39111.56
1520,38634.65
1521,37968.98
1522,37734.35
1523,38181.09
1524,38894.32
1525,39410.8
1526,39446.77
1527,38808.01
1528,37690.34
1529,37004.6
1530,37575.46
1531,38867.7
1532,39685.71
1533,39498.28
1534,39009.57
1535,38969.12
1536,39396.27
1537,39957.48
1538,40384.46
1539,40531.81
1540,40300.97
1541,39860.52
1542,39503.02
1543,39400.43
1544,39515.41
1545,39778.2
1546,40035.2
1547,40098.07
1548,39947.49
1549,39835.23
1550,39987.36
1551,40295.48
1552,40518.46
1553,40533.34
1554,40390.3
1555,40159.87
1556,39949.8
1557,39878.72
1558,39953.75
1559,40037.54
1560,40028.09
1561,40049.43
1562,40287.93
1563,40690.31
1564,40933.62
1565,40786.52
1566,40464.71
1567,40292.79
1568,40409.03
1569,40773.79
1570,41291.97
1571,41704.32
1572,41738.01
1573,41470.38
1574,41255.92
1575,41301.16
1576,41385.78
1577,41247.25
1578,40975.95
1579,40886.97
1580,41129.16
1581,41486.16
1582,41724.58
1583,41871.48
1584,42082.27
1585,42368.48
1586,42501.81
1587,42299.25
1588,41997.54
1589,41982.5
1590,42256.97
1591,42341.65
1592,41900.45
1593,41369.2
1594,41366.71
1595,41871.43
1596,42261.45
1597,42138.3
1598,41874.09
1599,41949.98
1600,42326.1
1601,42608.96
1602,42604.01
1603,42563.45
1604,42752.86
1605,43073.46
1606,43255.97
1607,43235.87
1608,43257.27
1609,43520.37
1610,43865.98
1611,44029.59
1612,43993.8
1613,43995
1614,44210.71
1615,44584.97
1616,45007.43
1617,45289.57
1618,45190.14
1619,44680.77
1620,44180.52
1621,44090.8
1622,44266.46
1623,44326.72
1624,44136.86
1625,43892.05
1626,43749.81
1627,43605.61
1628,43298.64
1629,42912.4
1630,42735.96
1631,42907.79
1632,43169.65
1633,43239.48
1634,43170.8
1635,43186.63
1636,43336.84
1637,43409.59
1638,43242.85
1639,43014.38
1640,42989
1641,43169.05
1642,43323.22
1643,43287.96
1644,43098.23
1645,42826.07
1646,42588.13
1647,42522.32
1648,42668.34
1649,42923.05
1650,43166.54
1651,43256.77
1652,43062.33
1653,42733.37
1654,42648.34
1655,42980.19
1656,43417.46
1657,43625.6
1658,43594.82
1659,43455.35
1660,43271.1
1661,43024.9
1662,42753.2
1663,42694.68
1664,43090.99
1665,43703.79
1666,43991.5
1667,43781
1668,43542.68
1669,43682.05
1670,43946.92
1671,43901.61
1672,43569.19
1673,43374.07
1674,43558.85
1675,43906.16
1676,44155.36
1677,44209.86
1678,44047.13
1679,43763.89
1680,43591.66
1681,43663.52
1682,43787.98
1683,43740.55
1684,43570.85
1685,43475.29
1686,43551.4
1687,43756.59
1688,44022.54
1689,44223.96
1690,44240.55
1691,44173.73
1692,44265.67
1693,44551.59
1694,44725.34
1695,44553.52
1696,44267.19
1697,44202.35
1698,44357.54
1699,44486.15
1700,44463.77
1701,44397.82
1702,44394.42
1703,44432.9
1704,44458.43
1705,44483.1
1706,44570.75
1707,44720.16
1708,44803.64
1709,44721.84
1710,44592
1711,44588.96
1712,44713.8
1713,44830.61
1714,44864.55
1715,44864.35
1716,44885.84
1717,44951.32
1718,45068.37
1719,45179.04
1720,45176.29
1721,45035.86
1722,44884.05
1723,44832.55
1724,44853.94
1725,44886.89
1726,44942.74
1727,45081.93
1728,45272.77
1729,45334.37
1730,45145.24
1731,44871.55
1732,44732.5
1733,44753.49
1734,44844.06
1735,44942.9
1736,45030.7
1737,45102.63
1738,45190.69
1739,45325.2
1740,45461.14
1741,45519.14
1742,45496.99
1743,45477.66
1744,45508.07
1745,45534.03
1746,45504.66
1747,45484.58
1748,45573.69
1749,45725.79
1750,45771.91
1751,45655.9
1752,45537.67
1753,45554.04
1754,45640.02
1755,45686.58
1756,45700.01
1757,45756.09
1758,45871.91
1759,45985.88
1760,46047.33
1761,46053.25
1762,46012.49
1763,45956.2
1764,45923.6
1765,45926.27
1766,45950.9
1767,45969.12
1768,45926.04
1769,45801.57
1770,45733.88
1771,45873.94
1772,46082.23
1773,46060.97
1774,45808.05
1775,45673.32
1776,45851.53
1777,46103.16
1778,46179.31
1779,46144.7
1780,46159.86
1781,46235.43
1782,46276.22
1783,46248.52
1784,46209.86
1785,46199.45
1786,46181.44
1787,46120.64
1788,46076.13
1789,46136.81
1790,46264.69
1791,46321.05
1792,46260.43
1793,46189.04
1794,46192.76
1795,46248.71
1796,46316.24
1797,46382.88
1798,46447.08
1799,46493.3
1800,46494.84
1801,46451.37
1802,46404.93
1803,46391.25
1804,46414.15
1805,46471.27
1806,46560.47
1807,46677.41
1808,46783.17
1809,46813.19
1810,46762.64
1811,46714.2
1812,46720.53
1813,46731.67
1814,46697.61
1815,46667.78
1816,46717.1
1817,46809.82
1818,46839.35
1819,46783.13
1820,46721.87
1821,46718.52
1822,46782.17
1823,46898.69
1824,46985.47
1825,46957.43
1826,46870.73
1827,46848.29
1828,46894.8
1829,46906.1
1830,46851.28
1831,46826.74
1832,46901.8
1833,47027.87
1834,47136.3
1835,47172.05
1836,47092.69
1837,46948.2
1838,46845.23
1839,46808.81
1840,46772.21
1841,46729.62
1842,46802.98
1843,47050.19
1844,47252.41
1845,47181.43
1846,46947.03
1847,46784.97
1848,46808.49
1849,47040.96
1850,47363.86
1851,47495.85
1852,47336.49
1853,47163.59
1854,47194.12
1855,47276.88
1856,47219.97
1857,47078.18
1858,46991.7
1859,46989.69
1860,47029.78
1861,47088.8
1862,47165.37
1863,47245.34
1864,47290.47
1865,47276.18
1866,47225.09
1867,47164.49
1868,47101.52
1869,47038.87
1870,46995.95
1871,47000.06
1872,47062.32
1873,47179.55
1874,47324.25
1875,47437.11
1876,47468.91
1877,47397.03
1878,47231.45
1879,47084.31
1880,47064.98
1881,47134.21
1882,47205.3
1883,47254.95
1884,47295.97
1885,47330.97
1886,47353.03
1887,47348.3
1888,47294.26
1889,47202.67
1890,47158.9
1891,47214.05
1892,47273.89
1893,47238.79
1894,47142.42
1895,47059.42
1896,47035.72
1897,47097.85
1898,47200.42
1899,47245.22
1900,47211.69
1901,47169.26
1902,47166.75
1903,47209.88
1904,47286.41
1905,47349.27
1906,47353.93
1907,47286.85
1908,47156.18
1909,47053.3
1910,47082.67
1911,47185.59
1912,47222.87
1913,47172.38
1914,47102.79
1915,47053.8
1916,47030.36
1917,47032.85
1918,47057.3
1919,47087.34
1920,47079.84
1921,47016.21
1922,46969.68
1923,47003.81
1924,47046.86
1925,47011.99
1926,46988.24
1927,47117.12
1928,47306.39
1929,47337.52
1930,47209.51
1931,47096.18
1932,47041.32
1933,46939.91
1934,46785.05
1935,46729.25
1936,46835.75
1937,46956.8
1938,46971.68
1939,46909.54
1940,46821.67
1941,46742.92
1942,46701.73
1943,46712.08
1944,46775
1945,46830.04
1946,46795.56
1947,46660.39
1948,46460.22
1949,46298.79
1950,46324.54
1951,46489.76
1952,46551.14
1953,46449.89
1954,46378.34
1955,46420.61
1956,46450.71
1957,46408.68
1958,46421.16
1959,46549.83
1960,46606.66
1961,46445
1962,46226.16
1963,46127.82
1964,46075.55
1965,45959.32
1966,45900.41
1967,46062.78
1968,46264.59
1969,46197.86
1970,45938.8
1971,45772.53
1972,45751.34
1973,45760.88
1974,45745.09
1975,45704.12
1976,45678.82
1977,45748.24
1978,45871.14
1979,45852.21
1980,45653.8
1981,45496.04
1982,45505.82
1983,45596.74
1984,45656.82
1985,45569.16
1986,45316.24
1987,45144.54
1988,45234.58
1989,45422.79
1990,45523.52
1991,45522.27
1992,45447.17
1993,45337.98
1994,45239.96
1995,45208.95
1996,45276.04
1997,45298.78
1998,45114.63
1999,44890.67
2000,44896.4
2001,45050.46
2002,45115.43
2003,45045.07
2004,44904.16
2005,44782.74
2006,44773.03
2007,44791.23
2008,44646.66
2009,44435.96
2010,44464.21
2011,44662.62
2012,44649.11
2013,44418.73
2014,44325.08
2015,44419.66
2016,44430.66
2017,44287.44
2018,44160.82
2019,44107.47
2020,44030.2
2021,43887.22
2022,43721.93
2023,43589.62
2024,43553.14
2025,43620.28
2026,43715.75
2027,43749.68
2028,43622.15
2029,43377.8
2030,43299.16
2031,43460.11
2032,43536.8
2033,43365.57
2034,43141.72
2035,43008.04
2036,42939.5
2037,42892.18
2038,42821
2039,42708.16
2040,42589.38
2041,42499.89
2042,42461.18
2043,42457.28
2044,42400.65
2045,42270.14
2046,42195.72
2047,42227.59
2048,42218.11
2049,42101.3
2050,42022.75
2051,42005.92
2052,41783.32
2053,41306.96
2054,41022.53
2055,41139.15
2056,41306.15
2057,41303.84
2058,41272.2
2059,41293.06
2060,41274.6
2061,41157.59
2062,40970.32
2063,40746.28
2064,40513.64
2065,40323.63
2066,40262.31
2067,40320.86
2068,40347.3
2069,40273.49
2070,40164.34
2071,40073.98
2072,40028.01
2073,39996.07
2074,39885.93
2075,39713.1
2076,39613.85
2077,39604.59
2078,39572.91
2079,39454.49
2080,39242.59
2081,39040.68
2082,39027.69
2083,39099.1
2084,38956.19
2085,38710.79
2086,38722.68
2087,38817.35
2088,38543.86
2089,38098.85
2090,37972.52
2091,38029.98
2092,37885.38
2093,37599.94
2094,37399.68
2095,37319.92
2096,37320.36
2097,37343.81
2098,37324.26
2099,37182.03
2100,36907.14
2101,36765.67
2102,36920.73
2103,37005.16
2104,36735.14
2105,36325.95
2106,36007.89
2107,35861.08
2108,35854.04
2109,35787.21
2110,35599.18
2111,35469.51
2112,35471.85
2113,35514.01
2114,35475.99
2115,35230.68
2116,34859.14
2117,34614.37
2118,34542.15
2119,34533.09
2120,34498.39
2121,34377.59
2122,34223.26
2123,34113.2
2124,33941.2
2125,33606.16
2126,33378.25
2127,33470.02
2128,33451.94
2129,32994.52
2130,32501.47
2131,32335.44
2132,32463.16
2133,32691.09
2134,32646.91
2135,32288.43
2136,32040.03
2137,32003.91
2138,31908.37
2139,31611.38
2140,31123.52
2141,30793.19
2142,31070.11
2143,31489.74
2144,31315.5
2145,30834.79
2146,30548.77
2147,30278.22
2148,29815.98
2149,29429.71
2150,29316.91
2151,29308.71
2152,29264.78
2153,29176.51
2154,29032.45
2155,28805.88
2156,28541.3
2157,28339.19
2158,28177.5
2159,27964.94
2160,27728.91
2161,27546.28
2162,27444.31
2163,27390.7
2164,27191.97
2165,26780.18
2166,26517.96
2167,26561.98
2168,26563.11
2169,26342.5
2170,26016.3
2171,25717.21
2172,25558.71
2173,25463.32
2174,25257.39
2175,24976.71
2176,24739.82
2177,24603.78
2178,24549.09
2179,24372.35
2180,23984.93
2181,23619.27
2182,23430.88
2183,23400.39
2184,23414.32
2185,23299.42
2186,23121.65
2187,23062.38
2188,22963.1
2189,22609.92
2190,22233.51
2191,22053.19
2192,21886.19
2193,21627.82
2194,21451.92
2195,21442.86
2196,21530.23
2197,21524.87
2198,21192.88
2199,20691.21
2200,20346.28
2201,20288.12
2202,20449.09
2203,20338.64
2204,19808.59
2205,19547.68
2206,19675.97
2207,19511.64
2208,19070.86
2209,18893.97
2210,18820.73
2211,18461.7
2212,18088.99
2213,18028.65
2214,18170.76
2215,18258.1
2216,17933.42
2217,17365.13
2218,17231.21
2219,17363.96
2220,17134.83
2221,16705.66
2222,16445.85
2223,16309.07
2224,16198.04
2225,16109.03
2226,15988.45
2227,15720.12
2228,15418.59
2229,15311.76
2230,15136.35
2231,14620.18
2232,14353.12
2233,14645.83
2234,14702.6
2235,14230.15
2236,13770.24
2237,13588.37
2238,13668.89
2239,13807.91
2240,13755.87
2241,13396.45
2242,12865.79
2243,12739.58
2244,13013.06
2245,12980.75
2246,12541.03
2247,12033.56
2248,11834.89
2249,12107.19
2250,12314.57
2251,12137.03
2252,11838.29
2253,11548.33
2254,11226.79
2255,10897.78
2256,10620.17
2257,10443.69
2258,10396.88
2259,10463.97
2260,10535.22
2261,10415.73
2262,10145.33
2263,9901.88
2264,9760.607
2265,9722.175
2266,9683.602
2267,9599.17
2268,9517.101
2269,9325.611
2270,8855.423
2271,8368.541
2272,8161.086
2273,8122.004
2274,8141.174
2275,8216.314
2276,8176.471
2277,7797.812
2278,7444.13
2279,7504.697
2280,7708.604
2281,7737.744
2282,7425.782
2283,7064.545
2284,7153.93
2285,7320.466
2286,7075.596
2287,6579.578
2288,6174.014
2289,6237.707
2290,6448.172
2291,6195.735
2292,5982.258
2293,6224.394
2294,6232.604
2295,5794.352
2296,5417.901
2297,5253.325
2298,5193.694
2299,5024.645
2300,4772.923
