400,71461.08
401,71360.3
402,71613.07
403,72050.46
404,72482.61
405,72747.12
406,72805.63
407,72655.92
408,72298.38
409,71773.1
410,71150.81
411,70502.51
412,69895.09
413,69387.63
414,69038.03
415,68897.01
416,68978.06
417,69282.4
418,69806.23
419,70459.38
420,71078.46
421,71498.8
422,71597.23
423,71336.82
424,70691.71
425,69694.51
426,68710.48
427,68220.91
428,68668.56
429,69822.17
430,70857.94
431,70938.77
432,69738.94
433,68020.69
434,66682.46
435,66448.85
436,67080.89
437,68002.8
438,68662.98
439,68897.15
440,68873.05
441,68767.94
442,68684.2
443,68572.7
444,68366.16
445,68026.02
446,67662.8
447,67435.14
448,67488.16
449,67767.16
450,68060.47
451,68154.59
452,67972.68
453,67685.63
454,67489.73
455,67517.82
456,67618.75
457,67561.82
458,67143.71
459,66490.45
460,65951.16
461,65872.42
462,66305.53
463,66850.39
464,67070.66
465,66688.48
466,65999.41
467,65428.34
468,65347.81
469,65654.05
470,65982.28
471,65975.42
472,65566.48
473,65041.2
474,64705.09
475,64743.52
476,65012.22
477,65311.09
478,65461.41
479,65422.73
480,65211.93
481,64848.23
482,64395.43
483,63958
484,63640.77
485,63461.63
486,63266.35
487,62881.15
488,62210.82
489,61520.23
490,61176.79
491,61502
492,62300.45
493,63043.38
494,63208.2
495,62666.28
496,61825.1
497,61128.56
498,60867.8
499,60883.5
500,60933.75
501,60814.07
502,60572.11
503,60362
504,60331.87
505,60523.66
506,60884.68
507,61358.75
508,61847.49
509,62174.46
510,62155.62
511,61683.3
512,60955.59
513,60246.85
514,59806.55
515,59662.23
516,59720.08
517,59886.13
518,60083.08
519,60252.08
520,60335.66
521,60309.06
522,60221.07
523,60130.26
524,60076.46
525,60008.58
526,59848.08
527,59527.41
528,59099.38
529,58692.72
530,58433.34
531,58327.2
532,58231.57
533,57995.41
534,57577.93
535,57211.4
536,57168.63
537,57621.16
538,58213.31
539,58418.33
540,57772.17
541,56532.23
542,55428.8
543,55180.18
544,55898.04
545,56932.1
546,57587.67
547,57472.14
548,56928.97
549,56410.63
550,56272.95
551,56393.93
552,56502.36
553,56357.89
554,56044.89
555,55847.45
556,56040.73
557,56583.09
558,57068.33
559,57073.43
560,56436.08
561,55557.9
562,54912.47
563,54841.08
564,55124.16
565,55392.77
566,55320.66
567,54944.15
568,54488.04
569,54170.55
570,54057.52
571,54069.38
572,54121.51
573,54164.53
574,54209.84
575,54274.85
576,54362.13
577,54425.64
578,54409.64
579,54271.46
580,54050.89
581,53819.96
582,53645.48
583,53527.2
584,53416.8
585,53266.63
586,53084.13
587,52946.4
588,52934.25
589,53053.21
590,53138.5
591,53002.79
592,52531.86
593,51917.2
594,51429.86
595,51303.35
596,51477.89
597,51752.39
598,51933.1
599,51952.47
600,51849.13
601,51664.78
602,51440.72
603,51217.65
604,51036
605,50916.4
606,50829.91
607,50740.05
608,50625.55
609,50533.92
610,50532.06
611,50671.7
612,50878.55
613,51015.2
614,50952.14
615,50695.2
616,50365.08
617,50084.04
618,49907.79
619,49798.18
620,49710.21
621,49617.7
622,49538.84
623,49498.23
624,49499.12
625,49456.41
626,49262.47
627,48840.48
628,48338.41
629,48004.16
630,48062.95
631,48429.89
632,48791.71
633,48839.44
634,48526.47
635,48117.81
636,47894.05
637,47982.57
638,48216.82
639,48397.69
640,48387.13
641,48240.7
642,48052.27
643,47900.56
644,47783.95
645,47673.79
646,47546
647,47418.89
648,47334.02
649,47329.65
650,47383.83
651,47422.44
652,47371.39
653,47216.95
654,47026.71
655,46873.5
656,46800.92
657,46790.83
658,46817.36
659,46848.36
660,46829.91
661,46703.75
662,46433.84
663,46106.82
664,45851.39
665,45779.02
666,45845.64
667,45923.03
668,45890.05
669,45748.75
670,45602.92
671,45555.92
672,45605.07
673,45615.96
674,45447.64
675,45069.48
676,44657.46
677,44409.34
678,44438.58
679,44617.19
680,44774.64
681,44771.79
682,44607.52
683,44319.41
684,43951.14
685,43590.68
686,43344.78
687,43308.04
688,43439.45
689,43611.21
690,43699.12
691,43667.93
692,43565.48
693,43442.14
694,43329.89
695,43236.01
696,43165.87
697,43109.8
698,43028.67
699,42880.07
700,42654.36
701,42436.21
702,42326.82
703,42393.1
704,42555.27
705,42694.39
706,42710.74
707,42625.37
708,42507.2
709,42419.62
710,42373.37
711,42349.08
712,42326.04
713,42265.51
714,42114.38
715,41822.91
716,41441.98
717,41134.56
718,41066.34
719,41261.57
720,41526.07
721,41648.49
722,41528.16
723,41302.23
724,41138.09
725,41141.43
726,41231.7
727,41293.49
728,41235.09
729,41065.3
730,40819.98
731,40539.36
732,40291.54
733,40154.92
734,40192.3
735,40330.58
736,40426.07
737,40347.21
738,40121.55
739,39888.45
740,39781.83
741,39788.93
742,39759.49
743,39543
744,39144.66
745,38762.79
746,38604.95
747,38741.22
748,39016.32
749,39255.05
750,39349.65
751,39338.58
752,39279.38
753,39207.14
754,39091.87
755,38891.93
756,38593.39
757,38290.39
758,38103.14
759,38119.1
760,38256.14
761,38377.03
762,38365.89
763,38253.7
764,38134.48
765,38092.57
766,38120.63
767,38160.4
768,38155.8
769,38083.52
770,37943.54
771,37738.32
772,37507.72
773,37325.25
774,37262.39
775,37307.57
776,37355.57
777,37298.48
778,37116.33
779,36913.11
780,36800.91
781,36819.02
782,36878.5
783,36877.95
784,36766.04
785,36601.56
786,36457.79
787,36383.95
788,36363.27
789,36367.7
790,36367.7
791,36328.23
792,36213.21
793,36006.33
794,35777.27
795,35618.89
796,35601.41
797,35673.38
798,35742.28
799,35729.37
800,35647.33
801,35546.9
802,35472.77
803,35419.13
804,35354.61
805,35249.81
806,35097.12
807,34902.16
808,34673.2
809,34452.54
810,34307.08
811,34298.44
812,34389.77
813,34459.9
814,34390.61
815,34183.74
816,33961.99
817,33850.01
818,33880.54
819,33978.15
820,34062.31
821,34087.7
822,34057.27
823,33977.64
824,33869.35
825,33775.16
826,33739.24
827,33769.24
828,33805.38
829,33780.99
830,33662.19
831,33484.79
832,33293.42
833,33122.41
834,32981.05
835,32874.8
836,32805.34
837,32763.68
838,32738.98
839,32720.16
840,32695.12
841,32651.62
842,32583.38
843,32506.18
844,32440.9
845,32399.22
846,32354.31
847,32269.24
848,32121.91
849,31960.96
850,31856.02
851,31859.54
852,31932.41
853,32004.85
854,32014.87
855,31946.2
856,31799.75
857,31583.72
858,31355.66
859,31193.48
860,31162.15
861,31230.63
862,31324.11
863,31373.84
864,31361.28
865,31292.96
866,31177.55
867,31041.62
868,30921.43
869,30849.53
870,30820.7
871,30807.64
872,30784.94
873,30750.6
874,30717.36
875,30696.27
876,30675.21
877,30626.45
878,30525.55
879,30394.43
880,30288.13
881,30258.04
882,30294.58
883,30342.05
884,30346.92
885,30304.62
886,30249.59
887,30214.48
888,30185.43
889,30109.75
890,29938.58
891,29710.21
892,29538.72
893,29533.64
894,29675.98
895,29830.74
896,29864.99
897,29762.95
898,29618.11
899,29524.48
900,29504.8
901,29513.54
902,29503.57
903,29450.55
904,29352.5
905,29209.86
906,29057.16
907,28963.06
908,28993.74
909,29127.34
910,29252.74
911,29258.73
912,29119.05
913,28894.44
914,28649.16
915,28442.21
916,28327.2
917,28353.81
918,28486.6
919,28602.41
920,28579.35
921,28412.96
922,28219.39
923,28115.77
924,28121.78
925,28157.82
926,28142.72
927,28055.91
928,27937.75
929,27830
930,27748.3
931,27682.46
932,27621.5
933,27559.58
934,27495.98
935,27430.51
936,27371.1
937,27333.31
938,27331.51
939,27351.88
940,27354.91
941,27302.77
942,27205.92
943,27117.41
944,27088.27
945,27111.69
946,27131.69
947,27094.37
948,27002.07
949,26902.92
950,26843.32
951,26825.05
952,26815.33
953,26782.91
954,26729.42
955,26680.63
956,26660.28
957,26658.98
958,26644.36
959,26586.98
960,26496.24
961,26407
962,26351.44
963,26329.46
964,26321.21
965,26308.24
966,26288.22
967,26268.01
968,26253.33
969,26238.96
970,26213.9
971,26169.81
972,26120.2
973,26089.19
974,26094.96
975,26112.37
976,26096.93
977,26012.62
978,25879.05
979,25738.42
980,25628.51
981,25561.35
982,25539.43
983,25561.85
984,25609.51
985,25657.37
986,25683.7
987,25682.19
988,25651.14
989,25592.4
990,25522.85
991,25463.28
992,25427.52
993,25403.51
994,25373.21
995,25323.09
996,25254.37
997,25171.34
998,25080.27
999,24993.37
1000,24923.82
1001,24877.41
1002,24841.13
1003,24799.11
1004,24744.84
1005,24692.46
1006,24658.85
1007,24653.56
1008,24652.5
1009,24621.97
1010,24542.03
1011,24447.68
1012,24387.63
1013,24392.35
1014,24429.54
1015,24453.42
1016,24434.32
1017,24390.38
1018,24348.49
1019,24324.84
1020,24308.44
1021,24284.08
1022,24241.99
1023,24184
1024,24113.56
1025,24041.02
1026,23989.48
1027,23983
1028,24021.29
1029,24066
1030,24076.2
1031,24034.97
1032,23957.17
1033,23859.84
1034,23761.1
1035,23680.24
1036,23635.63
1037,23626.32
1038,23633.4
1039,23638.25
1040,23636.24
1041,23633.51
1042,23635.93
1043,23643.11
1044,23650.72
1045,23653.85
1046,23643.1
1047,23606.81
1048,23538.27
1049,23464.76
1050,23427.64
1051,23457.03
1052,23523.44
1053,23577.77
1054,23582.21
1055,23545
1056,23486.28
1057,23422.93
1058,23361.65
1059,23307.07
1060,23264.38
1061,23240.1
1062,23240.83
1063,23263.08
1064,23283.84
1065,23278.23
1066,23236.21
1067,23169.93
1068,23093.54
1069,23028.14
1070,23002.92
1071,23045.06
1072,23135.74
1073,23214.66
1074,23225.53
1075,23180.9
1076,23140.94
1077,23159.36
1078,23224.44
1079,23290.08
1080,23320.05
1081,23342.27
1082,23409.69
1083,23552.99
1084,23700.63
1085,23751.97
1086,23651.3
1087,23490.73
1088,23392.39
1089,23423.3
1090,23519.72
1091,23599.34
1092,23611.89
1093,23562.52
1094,23462.12
1095,23331.69
1096,23204.97
1097,23115.04
1098,23065.78
1099,23033.99
1100,22996.43
1101,22941.16
1102,22863.87
1103,22762.86
1104,22656.04
1105,22570.71
1106,22529.02
1107,22525.08
1108,22543.63
1109,22571.68
1110,22604.36
1111,22638.67
1112,22670.29
1113,22691.62
1114,22694.66
1115,22676.18
1116,22641.14
1117,22595.48
1118,22551.48
1119,22528.9
1120,22545.71
1121,22582.38
1122,22588.43
1123,22518.67
1124,22388.84
1125,22249.29
1126,22144.01
1127,22075.74
1128,22031.53
1129,21998.35
1130,21963
1131,21912.29
1132,21841.18
1133,21765.36
1134,21703.65
1135,21663.65
1136,21634.15
1137,21602.41
1138,21563.7
1139,21522.26
1140,21482.72
1141,21449.09
1142,21424.89
1143,21413.7
1144,21419.53
1145,21446.65
1146,21492.54
1147,21521.45
1148,21487.43
1149,21370.65
1150,21230.03
1151,21138.91
1152,21131.91
1153,21170.56
1154,21209
1155,21224.43
1156,21221.89
1157,21208.28
1158,21193.14
1159,21188.08
1160,21202.07
1161,21222.35
1162,21225.54
1163,21195.8
1164,21152.75
1165,21126.44
1166,21134.19
1167,21158.02
1168,21174.08
1169,21173.15
1170,21170.61
1171,21183.38
1172,21208.51
1173,21222.43
1174,21202.37
1175,21145.52
1176,21061.86
1177,20962.5
1178,20864.52
1179,20787.22
1180,20743.17
1181,20721.35
1182,20705.72
1183,20687.05
1184,20669.88
1185,20660.16
1186,20657.61
1187,20654.51
1188,20643.21
1189,20622.84
1190,20597.3
1191,20569.36
1192,20532.98
1193,20478.52
1194,20402.82
1195,20326.5
1196,20275.49
1197,20259.34
1198,20254.35
1199,20233.45
1200,20189.75
1201,20139.99
1202,20101.35
1203,20080.07
1204,20074.97
1205,20083.95
1206,20100.19
1207,20115.06
1208,20120.1
1209,20107.32
1210,20069.07
1211,20016.43
1212,19993.18
1213,20044.01
1214,20159.94
1215,20279.35
1216,20343.92
1217,20347.16
1218,20310.91
1219,20256.46
1220,20201.07
1221,20160.83
1222,20145.45
1223,20149.43
1224,20164.91
1225,20179.04
1226,20172.55
1227,20128.15
1228,20060.34
1229,20005.96
1230,19994.54
1231,20008.74
1232,20013.89
1233,19988.48
1234,19950.17
1235,19923.62
1236,19920.24
1237,19931.23
1238,19946.26
1239,19958.41
1240,19963.5
1241,19957.51
1242,19936.83
1243,19898.06
1244,19843.1
1245,19791.5
1246,19766.17
1247,19772.88
1248,19789.19
1249,19791.3
1250,19777.63
1251,19765.6
1252,19770.82
1253,19791.74
1254,19819.31
1255,19843.84
1256,19853.36
1257,19835.74
1258,19795.32
1259,19762.72
1260,19768.81
1261,19809.92
1262,19854.38
1263,19874.18
1264,19870.07
1265,19854.29
1266,19839.67
1267,19840.69
1268,19871.63
1269,19922.91
1270,19951.46
1271,19916.32
1272,19835.63
1273,19768.61
1274,19761.49
1275,19787.71
1276,19797.04
1277,19765.7
1278,19732.07
1279,19741.97
1280,19798.47
1281,19856.95
1282,19874.88
1283,19852.03
1284,19810.86
1285,19774.26
1286,19765.96
1287,19809.53
1288,19899.69
1289,19981.96
1290,20000.45
1291,19954.98
1292,19890.29
1293,19845.7
1294,19820.53
1295,19799.43
1296,19774.31
1297,19755.38
1298,19755.13
1299,19770.44
1300,19780.44
1301,19766.73
1302,19741.67
1303,19733.69
1304,19756.65
1305,19772.52
1306,19732.54
1307,19636.76
1308,19559.34
1309,19573.92
1310,19666.55
1311,19762.86
1312,19803.32
1313,19804.65
1314,19805.84
1315,19828.94
1316,19863.08
1317,19894.01
1318,19914.95
1319,19925.46
1320,19926.6
1321,19927.04
1322,19938.26
1323,19965.98
1324,20002.47
1325,20038.39
1326,20072.42
1327,20111.27
1328,20159.14
1329,20200.01
1330,20209.21
1331,20180.49
1332,20156.79
1333,20187.61
1334,20273.43
1335,20360.17
1336,20396.33
1337,20374
1338,20305.66
1339,20214.52
1340,20154.16
1341,20181.49
1342,20284.02
1343,20368.09
1344,20349.46
1345,20259.29
1346,20184.72
1347,20181.53
1348,20212.62
1349,20225.06
1350,20201.46
1351,20165.7
1352,20141.26
1353,20129.87
1354,20123.01
1355,20118.84
1356,20134.34
1357,20188.53
1358,20266.7
1359,20317.17
1360,20297.12
1361,20240.55
1362,20214.8
1363,20254.41
1364,20311.4
1365,20327.84
1366,20308.11
1367,20317.24
1368,20407.28
1369,20535.73
1370,20624.85
1371,20638.16
1372,20626.97
1373,20650.47
1374,20710.68
1375,20762.72
1376,20772.66
1377,20766.69
1378,20788.89
1379,20851.46
1380,20912.17
1381,20927.12
1382,20896.38
1383,20848.73
1384,20807.69
1385,20775.48
1386,20749.38
1387,20723.43
1388,20687.44
1389,20634.02
1390,20580.98
1391,20558.4
1392,20576.37
1393,20592.39
1394,20557.84
1395,20476.18
1396,20400.35
1397,20374.32
1398,20382.05
1399,20387.36
1400,20368.63
1401,20330.48
1402,20280.95
1403,20235.71
1404,20215.52
1405,20232.79
1406,20270.8
1407,20306.72
1408,20325.05
1409,20319.04
1410,20286.19
1411,20249.76
1412,20243.6
1413,20284.23
1414,20351.1
1415,20420.13
1416,20484.9
1417,20552.1
1418,20622.56
1419,20673.23
1420,20676.16
1421,20638.19
1422,20610.19
1423,20635.53
1424,20683.05
1425,20689.43
1426,20627.83
1427,20549.75
1428,20513.4
1429,20528.96
1430,20571.67
1431,20613.5
1432,20617.41
1433,20546.19
1434,20423.17
1435,20342.07
1436,20380.82
1437,20492.96
1438,20584.65
1439,20600.83
1440,20558.08
1441,20481.81
1442,20409.7
1443,20386.87
1444,20433.91
1445,20499.85
1446,20523.52
1447,20499.74
1448,20474.95
1449,20485.48
1450,20512.49
1451,20522.05
1452,20509.21
1453,20508.28
1454,20548.11
1455,20598.47
1456,20603.86
1457,20550.85
1458,20509.12
1459,20549.99
1460,20652.76
1461,20739.29
1462,20757.86
1463,20734.64
1464,20708.62
1465,20701.87
1466,20721.76
1467,20768.73
1468,20816.99
1469,20834.78
1470,20814.24
1471,20775.55
1472,20741.19
1473,20737.17
1474,20790.14
1475,20887.4
1476,20955.09
1477,20927.39
1478,20843.92
1479,20793.71
1480,20820.1
1481,20873.22
1482,20897.04
1483,20891.33
1484,20889.63
1485,20907.32
1486,20911.37
1487,20864.52
1488,20782.19
1489,20719.64
1490,20712.46
1491,20728.67
1492,20724.45
1493,20696.07
1494,20676.63
1495,20689.05
1496,20709.89
1497,20705.19
1498,20674.66
1499,20654.59
1500,20672.06
1501,20700.4
1502,20697.91
1503,20665.34
1504,20656.96
1505,20714.51
1506,20789.35
1507,20802.49
1508,20739.42
1509,20677.52
1510,20688.63
1511,20762.17
1512,20855.13
1513,20931.59
1514,20966.96
1515,20945.68
1516,20909.91
1517,20926.2
1518,21005.27
1519,21062.88
1520,21021.13
1521,20923.61
1522,20869.67
1523,20908.42
1524,20998.28
1525,21089.83
1526,21147.72
1527,21143.53
1528,21077.23
1529,21000.94
1530,20967.71
1531,20990.8
1532,21063.88
1533,21163.4
1534,21234.46
1535,21229.13
1536,21184.52
1537,21178.47
1538,21235.03
1539,21280.7
1540,21244.63
1541,21157.94
1542,21099.01
1543,21108.54
1544,21161.8
1545,21229.14
1546,21292.9
1547,21340.77
1548,21371.2
1549,21399.78
1550,21438.38
1551,21463.92
1552,21439.81
1553,21362.55
1554,21276.93
1555,21225.61
1556,21215.7
1557,21241.37
1558,21289.4
1559,21336.96
1560,21366.61
1561,21391.38
1562,21432.87
1563,21486.4
1564,21517.75
1565,21507.63
1566,21506.31
1567,21579.02
1568,21720.33
1569,21857.21
1570,21930.88
1571,21940.98
1572,21901.01
1573,21845.19
1574,21824.14
1575,21863.93
1576,21921.94
1577,21948.01
1578,21940.55
1579,21928.98
1580,21938.48
1581,21984.04
1582,22074.71
1583,22180.53
1584,22252.33
1585,22267.75
1586,22249.2
1587,22223.62
1588,22219.38
1589,22264.4
1590,22347.12
1591,22406.27
1592,22399.26
1593,22380.39
1594,22426.75
1595,22531.52
1596,22609.24
1597,22612.94
1598,22625.17
1599,22742.98
1600,22926.96
1601,23045.1
1602,23034.34
1603,22985.14
1604,22995.87
1605,23065.53
1606,23146.13
1607,23211.42
1608,23268.39
1609,23324.96
1610,23379.73
1611,23428.64
1612,23474.66
1613,23527.98
1614,23591.18
1615,23640.78
1616,23649.88
1617,23617.07
1618,23558.49
1619,23488.8
1620,23418.85
1621,23355.42
1622,23279.13
1623,23159.78
1624,23001.71
1625,22855.32
1626,22760.19
1627,22695
1628,22624.06
1629,22545.73
1630,22487.07
1631,22457.72
1632,22421.18
1633,22341.63
1634,22252.19
1635,22220.45
1636,22253.75
1637,22268.73
1638,22203.06
1639,22130.07
1640,22157.14
1641,22273.88
1642,22365.05
1643,22355.38
1644,22283.51
1645,22204.17
1646,22151.83
1647,22150.22
1648,22197.91
1649,22257.09
1650,22290.81
1651,22278.97
1652,22209.84
1653,22132.7
1654,22146.25
1655,22278.31
1656,22391.75
1657,22352.76
1658,22218.93
1659,22129.03
1660,22131.19
1661,22163.22
1662,22174.27
1663,22176.38
1664,22192.72
1665,22217.25
1666,22225.53
1667,22216.89
1668,22232.13
1669,22302.24
1670,22387.23
1671,22427.08
1672,22408.64
1673,22359.85
1674,22319.38
1675,22347.42
1676,22486.92
1677,22636.77
1678,22638.77
1679,22477.87
1680,22301.58
1681,22226.46
1682,22246.29
1683,22327.92
1684,22405.39
1685,22396.58
1686,22303.04
1687,22243.28
1688,22300.11
1689,22387.44
1690,22391.22
1691,22341.41
1692,22360.03
1693,22478.43
1694,22577.58
1695,22554.06
1696,22436.53
1697,22291.29
1698,22198.5
1699,22247.57
1700,22435.2
1701,22589.96
1702,22568
1703,22448.94
1704,22374.49
1705,22392.41
1706,22476.96
1707,22582.85
1708,22631.48
1709,22569.6
1710,22491.98
1711,22530.04
1712,22654.18
1713,22708.08
1714,22633.24
1715,22563.65
1716,22618.64
1717,22737.12
1718,22807.02
1719,22786.91
1720,22689.38
1721,22548.25
1722,22432.8
1723,22400.42
1724,22436.84
1725,22508.37
1726,22593.29
1727,22677.97
1728,22732.83
1729,22702.66
1730,22568.91
1731,22466.24
1732,22544.74
1733,22713.89
1734,22742.68
1735,22590.94
1736,22481.4
1737,22566.7
1738,22712.18
1739,22748.58
1740,22699.47
1741,22680.05
1742,22718.29
1743,22745.4
1744,22725.48
1745,22717.22
1746,22778.64
1747,22874.43
1748,22935.96
1749,22928.13
1750,22844.73
1751,22716.85
1752,22642.77
1753,22691.51
1754,22773.66
1755,22768.91
1756,22689.34
1757,22627.77
1758,22645.37
1759,22759.95
1760,22940.5
1761,23023.54
1762,22863.59
1763,22604.81
1764,22501.8
1765,22597.85
1766,22747.01
1767,22852.38
1768,22922.13
1769,22973.79
1770,23015.33
1771,23048.07
1772,23031.57
1773,22904.74
1774,22716.74
1775,22647.31
1776,22777.21
1777,22923.81
1778,22911.21
1779,22822.15
1780,22815.89
1781,22891.64
1782,22935.74
1783,22901.56
1784,22842.04
1785,22814.15
1786,22863.82
1787,23015.42
1788,23166.43
1789,23172.4
1790,23033.62
1791,22866.35
1792,22752.94
1793,22716.79
1794,22765.23
1795,22870.45
1796,22993.25
1797,23065.96
1798,23015.92
1799,22891.36
1800,22838.99
1801,22910.29
1802,23001.19
1803,23030.99
1804,23036.49
1805,23068.65
1806,23119.83
1807,23159.33
1808,23164.32
1809,23118.76
1810,23038.29
1811,22984.13
1812,22996.03
1813,23043.72
1814,23086.57
1815,23093.97
1816,23043.28
1817,22967.16
1818,22933.38
1819,22957.31
1820,22990.17
1821,22999.81
1822,22999.96
1823,23005.44
1824,23008.96
1825,23000.54
1826,22998.6
1827,23034.03
1828,23094.23
1829,23126.63
1830,23106.62
1831,23058.17
1832,23012.53
1833,23008.97
1834,23074.07
1835,23152.34
1836,23166.13
1837,23122.14
1838,23079.84
1839,23055.58
1840,23016.74
1841,22961.17
1842,22950.94
1843,23020.82
1844,23083.71
1845,23044.43
1846,22930.9
1847,22820.12
1848,22785.17
1849,22892.79
1850,23093.92
1851,23204.79
1852,23151.06
1853,23091.34
1854,23149.32
1855,23230.8
1856,23216.53
1857,23127.02
1858,23031.94
1859,22947.1
1860,22855.35
1861,22792.91
1862,22852.41
1863,23024.78
1864,23118.38
1865,23021.9
1866,22914.4
1867,22971.97
1868,23086.07
1869,23080.81
1870,22982.13
1871,22917.17
1872,22927.58
1873,22981.89
1874,23042.44
1875,23066.56
1876,23037.38
1877,22994.01
1878,22971.67
1879,22966.19
1880,22965.05
1881,22957.15
1882,22933.38
1883,22899.31
1884,22869.41
1885,22865.45
1886,22914.77
1887,23006.65
1888,23078.1
1889,23075.77
1890,22974.99
1891,22799.56
1892,22722.06
1893,22880.59
1894,23063.63
1895,22989.98
1896,22781.65
1897,22746.96
1898,22882.17
1899,22947.15
1900,22864.08
1901,22746.8
1902,22665.66
1903,22599.8
1904,22541.96
1905,22541.19
1906,22627.64
1907,22724.82
1908,22748.26
1909,22718.81
1910,22692.47
1911,22694.07
1912,22730.46
1913,22790.08
1914,22847.11
1915,22874.97
1916,22846.86
1917,22753.78
1918,22614.82
1919,22476.51
1920,22441.1
1921,22559.11
1922,22687.66
1923,22687.83
1924,22627.99
1925,22622.54
1926,22677.07
1927,22747.9
1928,22759.43
1929,22628.89
1930,22467.39
1931,22534.11
1932,22783.9
1933,22832.56
1934,22565.44
1935,22301.87
1936,22276.45
1937,22474.35
1938,22781.57
1939,22891.65
1940,22605.63
1941,22276.15
1942,22286.18
1943,22455.44
1944,22464.82
1945,22368.64
1946,22368.38
1947,22436.27
1948,22418.25
1949,22339.99
1950,22362.1
1951,22473.68
1952,22489.38
1953,22355.22
1954,22198.69
1955,22120.24
1956,22153.91
1957,22304.33
1958,22526.17
1959,22730.2
1960,22723.7
1961,22405.71
1962,22073.77
1963,22026.1
1964,22138.11
1965,22192.64
1966,22163.46
1967,22093.96
1968,22013.46
1969,21944.98
1970,21914.09
1971,21943.27
1972,21991.34
1973,21976.39
1974,21912.9
1975,21897.52
1976,21939.23
1977,21951.6
1978,21890.62
1979,21773.26
1980,21647.56
1981,21602.58
1982,21661.15
1983,21717.43
1984,21692.76
1985,21599.55
1986,21481.66
1987,21433.44
1988,21510.25
1989,21618.33
1990,21666.73
1991,21685.13
1992,21712.23
1993,21701.61
1994,21604.69
1995,21485.25
1996,21426.73
1997,21408.44
1998,21378.49
1999,21344.45
2000,21332.68
2001,21309
2002,21221.97
2003,21147.77
2004,21216.54
2005,21347.89
2006,21344.43
2007,21244.35
2008,21240.08
2009,21293.41
2010,21195.98
2011,21006.14
2012,21004.07
2013,21155.97
2014,21133.33
2015,20923.44
2016,20846.7
2017,20973.5
2018,21077.69
2019,21071.96
2020,21056.01
2021,21046.06
2022,20936.54
2023,20736.33
2024,20623.92
2025,20658.24
2026,20702.46
2027,20684.03
2028,20656.14
2029,20635.85
2030,20563.16
2031,20441.33
2032,20394.53
2033,20458.73
2034,20490.06
2035,20402.44
2036,20252.65
2037,20131.96
2038,20166.39
2039,20351.76
2040,20422.45
2041,20259.46
2042,20095.54
2043,20070.14
2044,20051.11
2045,19960.85
2046,19897.53
2047,19904.93
2048,19874.18
2049,19760.43
2050,19684.27
2051,19711.12
2052,19757.21
2053,19747.58
2054,19659.34
2055,19514.01
2056,19406.03
2057,19394.97
2058,19459.43
2059,19496.33
2060,19275.86
2061,18856.64
2062,18810.48
2063,19258.87
2064,19504.97
2065,19276.79
2066,19082.06
2067,19136.52
2068,19127.24
2069,18959.78
2070,18897.98
2071,18977.24
2072,18908.13
2073,18671.19
2074,18592.45
2075,18730.92
2076,18827.46
2077,18770.21
2078,18619.74
2079,18475.14
2080,18454.47
2081,18491.52
2082,18378.44
2083,18201.67
2084,18257.63
2085,18505.85
2086,18670.71
2087,18566.92
2088,18117.99
2089,17718.05
2090,17909.23
2091,18253.17
2092,17971.54
2093,17362.88
2094,17089.01
2095,17149.63
2096,17316.67
2097,17483.88
2098,17595.85
2099,17647.67
2100,17646.13
2101,17589.47
2102,17473.12
2103,17290.24
2104,17083.13
2105,17024.52
2106,17158.98
2107,17200.28
2108,17024.53
2109,16890.59
2110,16891.02
2111,16799.05
2112,16566.57
2113,16408.01
2114,16390.59
2115,16405.64
2116,16388.56
2117,16323.81
2118,16222.46
2119,16114.29
2120,16032.79
2121,16008.1
2122,16026.58
2123,16050.44
2124,16024.09
2125,15906.85
2126,15764.13
2127,15666.1
2128,15579.16
2129,15477.99
2130,15432.16
2131,15451.04
2132,15370.62
2133,15147.87
2134,14991.71
2135,14980.35
2136,14980.56
2137,14949.97
2138,14953.44
2139,14945.41
2140,14804.74
2141,14648.25
2142,14701.44
2143,14820.59
2144,14743.61
2145,14574.57
2146,14493.96
2147,14438.75
2148,14330.1
2149,14241.04
2150,14201.21
2151,14077.04
2152,13832.51
2153,13630.19
2154,13580.38
2155,13695.23
2156,13789.41
2157,13544.85
2158,13166.1
2159,13132.76
2160,13275.8
2161,13206.92
2162,13085.89
2163,13133.07
2164,13077.61
2165,12740.43
2166,12492.17
2167,12544.53
2168,12652.29
2169,12658.94
2170,12589.52
2171,12487.16
2172,12397.88
2173,12336.35
2174,12280.11
2175,12083.99
2176,11654.31
2177,11414.89
2178,11656.7
2179,11746.65
2180,11355.9
2181,11185.18
2182,11410.18
2183,11290.04
2184,10790.22
2185,10589.2
2186,10713.43
2187,10771.79
2188,10660.1
2189,10445.45
2190,10379.33
2191,10585.4
2192,10665.86
2193,10418.22
2194,10175.79
2195,10107.83
2196,10110.89
2197,10092.57
2198,9994.013
2199,9855.863
2200,9759.392
2201,9726.021
2202,9749.036
2203,9794.438
2204,9754.861
2205,9398.775
2206,8886.033
2207,8841.324
2208,9102.502
2209,8950.955
2210,8559.333
2211,8456.315
2212,8652.672
2213,8936.724
2214,8920.851
2215,8562.819
2216,8457.065
2217,8622.204
2218,8445.116
2219,8042.752
2220,7940.875
2221,8013.503
2222,7971.767
2223,7900.243
2224,7880.472
2225,7807.414
2226,7658.146
2227,7538.166
2228,7466.166
2229,7405.762
2230,7450.982
2231,7654.378
2232,7662.243
2233,7291.466
2234,6967.083
2235,6829.949
2236,6570.498
2237,6311.496
2238,6439.053
2239,6678.07
2240,6597.105
2241,6291.781
2242,6024.199
2243,6124.591
2244,6446.45
2245,6339.02
2246,5993.268
2247,6033.006
2248,6150.28
2249,5926.667
2250,5688.028
2251,5666.557
2252,5695.568
2253,5632.049
2254,5422.291
2255,5286.273
2256,5422.575
2257,5333.583
2258,4765.543
2259,4408.736
2260,4509.358
2261,4656.08
2262,4739.995
2263,4826.214
2264,4714.677
2265,4320.371
2266,4109.263
2267,4235.778
2268,4306.154
2269,4219.102
2270,4110.758
2271,4028.608
2272,3979.228
2273,3957.235
2274,3991.772
2275,4153.669
2276,4288.361
2277,4134.189
2278,3929.596
2279,3907.536
2280,3661.781
2281,3188.147
2282,3224.039
2283,3660.346
2284,3779.097
2285,3490.41
2286,3018.519
2287,2768.883
2288,2963.861
2289,3493.838
2290,3840.267
2291,3434.293
2292,2887.842
2293,2801.392
2294,2784.998
2295,2609.26
2296,2409.167
2297,2329.438
2298,2435.119
2299,2482.765
2300,2321.419
