400,68907.68
401,68724.48
402,68954.4
403,69470.39
404,70127.3
405,70774.81
406,71235.79
407,71326.08
408,70878.31
409,69965.25
410,68844.28
411,67775.61
412,66932.8
413,66322.93
414,65934.03
415,65761.17
416,65836.95
417,66206.31
418,66905.1
419,67814.15
420,68682.88
421,69258.24
422,69365.07
423,68990.42
424,68141.84
425,66893.6
426,65700.61
427,65150.24
428,65782.31
429,67301.99
430,68680.74
431,68873.61
432,67468.66
433,65400.55
434,63772.7
435,63476.19
436,64226.22
437,65326.93
438,66111.72
439,66382.76
440,66344.32
441,66212.09
442,66111.21
443,65983.65
444,65749.4
445,65363.07
446,64959.05
447,64729.74
448,64850.53
449,65245.72
450,65642.34
451,65765.3
452,65528.78
453,65190.07
454,65041.63
455,65273.48
456,65617.08
457,65675.55
458,65099.68
459,64114.21
460,63332.64
461,63363.7
462,64284.62
463,65359.96
464,65789.09
465,65071.75
466,63794.54
467,62789.12
468,62783.49
469,63561.42
470,64389.5
471,64549.21
472,63887.3
473,62937.71
474,62273.06
475,62258.12
476,62687.95
477,63260.96
478,63700.66
479,63891.11
480,63783.07
481,63334.47
482,62636.12
483,61900.14
484,61341.02
485,61029.77
486,60753.46
487,60266.69
488,59432.08
489,58607
490,58289.82
491,58914.16
492,60183.85
493,61332.21
494,61601.74
495,60808.16
496,59547.39
497,58468.21
498,58008.26
499,57982.55
500,58091.88
501,58075.87
502,57934.58
503,57778.19
504,57716.96
505,57865.64
506,58343.01
507,59265.15
508,60521.92
509,61586.36
510,61889.19
511,61066.47
512,59575.98
513,58080.59
514,57184.02
515,56962.07
516,57201.85
517,57690.31
518,58261.42
519,58801.13
520,59198.9
521,59397.46
522,59459.19
523,59462.48
524,59455.82
525,59342.65
526,58982.62
527,58259.69
528,57326.13
529,56503.3
530,56105.02
531,56138.55
532,56231.03
533,55988.47
534,55287.07
535,54672.32
536,54789.2
537,56053.3
538,57685.96
539,58521.15
540,57526.77
541,55209.21
542,53083.58
543,52640.53
544,54113.77
545,56158.14
546,57336.53
547,56866.34
548,55560.45
549,54467.69
550,54396.05
551,54961.6
552,55408.44
553,55073.19
554,54269.8
555,53913.22
556,54888.05
557,57030.33
558,58969.29
559,59278.77
560,57406.43
561,54690.02
562,52708.49
563,52606.96
564,53691.62
565,54778.75
566,54819.28
567,53906.82
568,52729.21
569,51954.46
570,51792.18
571,52014.31
572,52377.73
573,52752.39
574,53203.89
575,53817.01
576,54600.63
577,55315.74
578,55673.75
579,55453.29
580,54856.29
581,54250.5
582,53976.41
583,54024.89
584,54136.17
585,54052.34
586,53739.81
587,53448.39
588,53444.01
589,53777.45
590,54014.11
591,53654.72
592,52403.3
593,50813.55
594,49660.22
595,49607.45
596,50453.73
597,51580.51
598,52392.52
599,52691.16
600,52611.66
601,52298.62
602,51878
603,51449.19
604,51108.91
605,50902.82
606,50748.64
607,50544.7
608,50248.43
609,50085.65
610,50357.56
611,51295.39
612,52547.63
613,53470.89
614,53459.05
615,52541.31
616,51285.95
617,50269.55
618,49786.24
619,49732.59
620,49975.63
621,50382.08
622,50816.71
623,51144.7
624,51234.24
625,50964.09
626,50216.15
627,48941.13
628,47595.07
629,46858.38
630,47343.75
631,48739.27
632,50052.12
633,50304.73
634,49368.18
635,48121.68
636,47494.74
637,47927.18
638,48919.45
639,49867.67
640,50333.74
641,50403.79
642,50268.05
643,50085.83
644,49852.86
645,49509.82
646,49017.96
647,48531.55
648,48310.6
649,48596.01
650,49285.91
651,49981.52
652,50283.04
653,50083.85
654,49672.45
655,49363.12
656,49336.68
657,49492.44
658,49694.29
659,49808.28
660,49706.1
661,49261.13
662,48412.05
663,47458.27
664,46822.67
665,46867.57
666,47407.57
667,47960.84
668,48073.53
669,47772.99
670,47484.09
671,47629.47
672,48203.26
673,48667.23
674,48456.42
675,47427.98
676,46229.29
677,45591.3
678,45938.63
679,46819.63
680,47628.17
681,47867.25
682,47520.14
683,46704.9
684,45567.31
685,44454.07
686,43797.26
687,43980.22
688,44842.76
689,45876.96
690,46587.82
691,46810.26
692,46687.05
693,46371.59
694,45993.99
695,45653.16
696,45444.68
697,45381.93
698,45317.25
699,45085.13
700,44629.16
701,44207.51
702,44133.59
703,44611.84
704,45381.1
705,46055.9
706,46312.55
707,46216.29
708,45986.43
709,45826.48
710,45788.86
711,45839.84
712,45937.55
713,45922.65
714,45541.97
715,44556.68
716,43177.49
717,42115.82
718,42095.72
719,43227.17
720,44672.13
721,45517.86
722,45325.32
723,44672.98
724,44268.75
725,44558.95
726,45200.65
727,45703.16
728,45679.25
729,45180.61
730,44377.07
731,43451.18
732,42668.51
733,42325.19
734,42659.94
735,43413.41
736,44067.52
737,44144.64
738,43697.73
739,43152.7
740,42920
741,42970.44
742,42862.79
743,42156.25
744,40917.68
745,39844.09
746,39661.27
747,40579.81
748,41965.19
749,43108.7
750,43581.67
751,43563.04
752,43310.95
753,43004.17
754,42592.18
755,41983.16
756,41160.5
757,40401.54
758,40054.36
759,40367.55
760,41073.52
761,41737.11
762,41992.59
763,41952.68
764,41935.38
765,42220.8
766,42730.73
767,43187.93
768,43330.45
769,43113.29
770,42645.55
771,42042.47
772,41484.6
773,41210.96
774,41449.61
775,42080.58
776,42591.4
777,42460.38
778,41612.48
779,40602.82
780,40027.79
781,40147.61
782,40630.35
783,41085.85
784,41263.17
785,41217.2
786,41043.46
787,40833.51
788,40668.64
789,40628.05
790,40732.09
791,40796.67
792,40594.05
793,39992.31
794,39275.11
795,38838.29
796,38984.1
797,39512.06
798,40051.96
799,40285.85
800,40242.14
801,40093.45
802,39993.45
803,39936
804,39834.29
805,39606.48
806,39227.71
807,38707.8
808,38067.37
809,37469.9
810,37182.08
811,37448.28
812,38095.44
813,38593.03
814,38424.88
815,37627.18
816,36792.44
817,36521.99
818,37004.27
819,37941.34
820,39009.32
821,39913.47
822,40398.57
823,40218.37
824,39452.94
825,38702.87
826,38608.2
827,39347.25
828,40246.2
829,40544.23
830,39877.83
831,38729.8
832,37689.18
833,37143.53
834,36986.97
835,37039.49
836,37152.73
837,37266.63
838,37336.84
839,37332.71
840,37267.47
841,37163.22
842,37051.84
843,37001.92
844,37090.28
845,37334.87
846,37504.64
847,37303.53
848,36561.02
849,35704.87
850,35340.37
851,35916.77
852,37050.32
853,38078.66
854,38438.85
855,38158.18
856,37484.99
857,36667.52
858,35957.39
859,35606.95
860,35815.97
861,36393.43
862,36970.32
863,37214.84
864,37103.26
865,36765.7
866,36334.42
867,35956.09
868,35784.86
869,35948.89
870,36314.54
871,36595.06
872,36538.7
873,36298.14
874,36280.37
875,36843.07
876,37704.38
877,38152.65
878,37538.73
879,36126.7
880,34833.45
881,34525.03
882,35168.94
883,36052.94
884,36489.7
885,36408.02
886,36227.39
887,36349.89
888,36675.44
889,36685.14
890,35888.9
891,34518.15
892,33431.79
893,33460.16
894,34539.61
895,35799.43
896,36377.45
897,36109.89
898,35484.39
899,34996.81
900,34825.26
901,34843.04
902,34911.1
903,34878.24
904,34581.36
905,33872.13
906,32942.05
907,32322.45
908,32531.51
909,33470.65
910,34415.67
911,34640.08
912,33972.66
913,32811.01
914,31575.08
915,30636.14
916,30315.44
917,30909.66
918,32201.72
919,33445.04
920,33899.53
921,33507.29
922,32910.83
923,32761.43
924,33211.37
925,33904.79
926,34471.97
927,34723.7
928,34652.28
929,34262.66
930,33665.1
931,33074
932,32699.52
933,32580.35
934,32589.27
935,32596.73
936,32558.78
937,32512.1
938,32495
939,32517.43
940,32563.52
941,32618.23
942,32699.43
943,32854.09
944,33126.69
945,33502.95
946,33918.71
947,34307.24
948,34581.92
949,34640.04
950,34391.43
951,33938.41
952,33532.45
953,33409.54
954,33544.63
955,33720.51
956,33729.71
957,33538.42
958,33233.64
959,32903.48
960,32623.45
961,32460.76
962,32470.78
963,32584.45
964,32656.69
965,32564.77
966,32413.79
967,32438.42
968,32830.56
969,33389.83
970,33709.2
971,33456.23
972,32912
973,32655.38
974,33149
975,33997.46
976,34423.71
977,33793.69
978,32418.53
979,30992.69
980,30124.31
981,29913.35
982,30272.47
983,31079.39
984,32025.18
985,32739.86
986,32939.53
987,32745.21
988,32397.65
989,32103.74
990,31930
991,31905.73
992,32034.62
993,32224.75
994,32362.16
995,32362.62
996,32238.95
997,32023.9
998,31744.06
999,31408.67
1000,31023.79
1001,30616.31
1002,30265.83
1003,30059.8
1004,30051.7
1005,30219.94
1006,30532.92
1007,30942.78
1008,31326.48
1009,31539.55
1010,31491.08
1011,31303.58
1012,31152.78
1013,31157.5
1014,31240.74
1015,31283.39
1016,31210.31
1017,31076.53
1018,30961.02
1019,30914.59
1020,30916.79
1021,30936.08
1022,30943.28
1023,30914.29
1024,30826.12
1025,30695.56
1026,30612.84
1027,30674.3
1028,30876.99
1029,31062.66
1030,31063.3
1031,30847.63
1032,30565
1033,30371.89
1034,30287.26
1035,30177.18
1036,29908.86
1037,29528.65
1038,29249.26
1039,29273.09
1040,29559.45
1041,29880.01
1042,30026.67
1043,30071.41
1044,30264.17
1045,30812.27
1046,31528.51
1047,32021.76
1048,31962.48
1049,31446.64
1050,30747.2
1051,30118.48
1052,29716.27
1053,29663.56
1054,30020.56
1055,30589.21
1056,31105.35
1057,31387.67
1058,31518.1
1059,31630.57
1060,31761.41
1061,31705.82
1062,31224.96
1063,30334
1064,29535.83
1065,29378.41
1066,29906.22
1067,30411.43
1068,30149.53
1069,29097.78
1070,28072.3
1071,27894.11
1072,28600.88
1073,29524.66
1074,30014.36
1075,29943.61
1076,29549.3
1077,29064.1
1078,28622.05
1079,28305.26
1080,28188.69
1081,28305.88
1082,28674.09
1083,29251.89
1084,29728.86
1085,29718.18
1086,29042.97
1087,28216.92
1088,27893.83
1089,28424.86
1090,29442.51
1091,30476.76
1092,31175
1093,31387.32
1094,30990.74
1095,30103.25
1096,29148.27
1097,28552.51
1098,28424.23
1099,28576.38
1100,28816.79
1101,29025.2
1102,29129.74
1103,29074.09
1104,28918.61
1105,28779.57
1106,28751.88
1107,28813.84
1108,28904.87
1109,28973.61
1110,29002.31
1111,28980.91
1112,28892.18
1113,28701.31
1114,28372
1115,27963.25
1116,27696.87
1117,27803.55
1118,28294.86
1119,28921.84
1120,29428.68
1121,29694.48
1122,29709.95
1123,29480.85
1124,29128.11
1125,28838.05
1126,28776.65
1127,28981.04
1128,29439.25
1129,30080.55
1130,30601.58
1131,30642.31
1132,30061
1133,29273.09
1134,28777.8
1135,28809.62
1136,29158.77
1137,29574.99
1138,29860.86
1139,29878.04
1140,29510.87
1141,28920.59
1142,28474.63
1143,28498.45
1144,28938.84
1145,29558.63
1146,30104.62
1147,30250.21
1148,29646.63
1149,28222.22
1150,26741.87
1151,26122.25
1152,26732.9
1153,27910.14
1154,28888.64
1155,29324.03
1156,29380.1
1157,29247.54
1158,29066.8
1159,28939.51
1160,28950.62
1161,29058.15
1162,29158.46
1163,29158.44
1164,29016.38
1165,28705.81
1166,28275.96
1167,27986.32
1168,28129.4
1169,28766.12
1170,29568.34
1171,30178.37
1172,30426.65
1173,30338.82
1174,29955.21
1175,29380.45
1176,28760.27
1177,28229.82
1178,27855.03
1179,27675.51
1180,27701.89
1181,27844.39
1182,27991.74
1183,28082.93
1184,28157.5
1185,28266.36
1186,28438.71
1187,28677.95
1188,28984.68
1189,29341.99
1190,29720.54
1191,30071.93
1192,30221.08
1193,29940.49
1194,29135.78
1195,28199.32
1196,27633.01
1197,27690.93
1198,28124.4
1199,28626.33
1200,28968.71
1201,29015.96
1202,28664.16
1203,28137.61
1204,27882.67
1205,28254.66
1206,29025.88
1207,29748.16
1208,30071.31
1209,29961.33
1210,29449.28
1211,28705.36
1212,28142.67
1213,28178
1214,28764.62
1215,29400.94
1216,29616.79
1217,29417.34
1218,29067.65
1219,28803.55
1220,28712.58
1221,28839.24
1222,29181.75
1223,29627.94
1224,30049.37
1225,30312.77
1226,30278.71
1227,29826.73
1228,29091.9
1229,28389.06
1230,27997.93
1231,27964.2
1232,28246.84
1233,28771.51
1234,29365.96
1235,29840.98
1236,30078.8
1237,30070.69
1238,29821.03
1239,29397.71
1240,28920.39
1241,28510.24
1242,28287.48
1243,28372.02
1244,28800.16
1245,29332.8
1246,29676.01
1247,29682.64
1248,29446.89
1249,29085.5
1250,28715.51
1251,28454.21
1252,28405.29
1253,28574.73
1254,28926.21
1255,29365.41
1256,29608.57
1257,29338.39
1258,28602.3
1259,28029.77
1260,28253.18
1261,29100.9
1262,29750.91
1263,29522.14
1264,28770.66
1265,28265.23
1266,28495.63
1267,29131.57
1268,29698.42
1269,29960.09
1270,30014.79
1271,29981.12
1272,29917.02
1273,29838.41
1274,29735.69
1275,29469.61
1276,28859.34
1277,27964.89
1278,27410.02
1279,27872.62
1280,29257.36
1281,30606.29
1282,31010.61
1283,30436.47
1284,29318.43
1285,28119.64
1286,27393.04
1287,27706.86
1288,29080.67
1289,30598.77
1290,31300.9
1291,30998.45
1292,30124.44
1293,29114.79
1294,28313.9
1295,28032.58
1296,28423.06
1297,29240
1298,30175.9
1299,30908.18
1300,31097.22
1301,30488.75
1302,29596.04
1303,29333.49
1304,30201.59
1305,31224.1
1306,31115.62
1307,29637.86
1308,28145.28
1309,28009.85
1310,29095.32
1311,30225.35
1312,30468.85
1313,30155.71
1314,29984.57
1315,30290.19
1316,30701.98
1317,30790.84
1318,30531.6
1319,30244.92
1320,30207.08
1321,30361.9
1322,30531.35
1323,30600.8
1324,30604.91
1325,30598.79
1326,30617.17
1327,30674.27
1328,30771.58
1329,30827.71
1330,30725.72
1331,30416.83
1332,30035.23
1333,29742.45
1334,29610.1
1335,29609.53
1336,29705.78
1337,29856.16
1338,30014.26
1339,30142
1340,30225.5
1341,30256.52
1342,30267.51
1343,30338.56
1344,30539.13
1345,30829.36
1346,31116.28
1347,31318.32
1348,31388.63
1349,31289.45
1350,31072.47
1351,30893.37
1352,30879.41
1353,30886.51
1354,30642.37
1355,30061.84
1356,29583.55
1357,29718.09
1358,30446.41
1359,31170.09
1360,31341.72
1361,30996.49
1362,30422.35
1363,29872.46
1364,29509.25
1365,29477.19
1366,29822.58
1367,30496.19
1368,31406.88
1369,32235.27
1370,32577.57
1371,32333.4
1372,32046.42
1373,32297.57
1374,32905.83
1375,33064.85
1376,32212.04
1377,31063.84
1378,30716.33
1379,31526.22
1380,32588.69
1381,32954.86
1382,32636.48
1383,32272.23
1384,32345.93
1385,32730.31
1386,33158.12
1387,33371.35
1388,33124.3
1389,32254.97
1390,31279.91
1391,31046.48
1392,31931.81
1393,33074.93
1394,33455.56
1395,32958.17
1396,32325.84
1397,32201.33
1398,32488.52
1399,32842.45
1400,33010.11
1401,32904.51
1402,32478.35
1403,31952.12
1404,31721.3
1405,32036.42
1406,32633.27
1407,33139.66
1408,33314.27
1409,33070.59
1410,32377.78
1411,31523.31
1412,30927.08
1413,30864.76
1414,31304.12
1415,32158.83
1416,33133.59
1417,33777.39
1418,33792.57
1419,33493.32
1420,33334.84
1421,33474.32
1422,33691.45
1423,33750.87
1424,33488.06
1425,32769.88
1426,31653.14
1427,30599.75
1428,30100.7
1429,30309.48
1430,31134.72
1431,32385.04
1432,33526.93
1433,33966.01
1434,33685.18
1435,33339.46
1436,33498.91
1437,33960.06
1438,34225.18
1439,34050.5
1440,33660.52
1441,33320.18
1442,33183.04
1443,33335.09
1444,33769.02
1445,34210.29
1446,34351.3
1447,34199.78
1448,34053.84
1449,34144.21
1450,34341.95
1451,34419.09
1452,34303.54
1453,34134.6
1454,34042.38
1455,33982.07
1456,33834.33
1457,33609.13
1458,33571.49
1459,33978.91
1460,34665.2
1461,35199.84
1462,35297.77
1463,35100.64
1464,34821.83
1465,34604.52
1466,34531.07
1467,34659.11
1468,34953.08
1469,35350.78
1470,35697.91
1471,35732.31
1472,35274.16
1473,34649.14
1474,34355.91
1475,34536.65
1476,34779.12
1477,34689.88
1478,34405.55
1479,34310.73
1480,34575.18
1481,34930.47
1482,35086.58
1483,35096.85
1484,35222.39
1485,35572.57
1486,35855.61
1487,35742.41
1488,35308.29
1489,34934.4
1490,34892.32
1491,35069.16
1492,35276.21
1493,35379.12
1494,35293.36
1495,34996.66
1496,34709.36
1497,34703.63
1498,34989.7
1499,35292.64
1500,35383.41
1501,35326.38
1502,35273.05
1503,35330.12
1504,35547.81
1505,35935.02
1506,36288.69
1507,36335.45
1508,36014.79
1509,35569.65
1510,35249.05
1511,35186.51
1512,35467.74
1513,36008.42
1514,36457.06
1515,36503.71
1516,36308.45
1517,36231.96
1518,36381.7
1519,36433.3
1520,36088.27
1521,35575.83
1522,35367
1523,35662.13
1524,36174.05
1525,36578.53
1526,36669.57
1527,36300.16
1528,35587.61
1529,35134.01
1530,35487.04
1531,36305.87
1532,36818.31
1533,36685.82
1534,36376.28
1535,36386.01
1536,36725.73
1537,37171.24
1538,37528.31
1539,37660.37
1540,37469.08
1541,37109.14
1542,36852.45
1543,36845.52
1544,37017.21
1545,37270.94
1546,37483.52
1547,37521.67
1548,37386.35
1549,37293.63
1550,37434.52
1551,37703.87
1552,37879.05
1553,37846.56
1554,37652.79
1555,37371.84
1556,37163.52
1557,37213.43
1558,37492.59
1559,37693.92
1560,37586.14
1561,37411.81
1562,37548.17
1563,37985.04
1564,38276.13
1565,38091.8
1566,37692.57
1567,37482.22
1568,37612.57
1569,37994.72
1570,38495.96
1571,38868.31
1572,38860.05
1573,38560.39
1574,38328.39
1575,38371.94
1576,38463.87
1577,38333.87
1578,38069.6
1579,37986.74
1580,38234.61
1581,38597.03
1582,38838.43
1583,38964.23
1584,39099.11
1585,39275.5
1586,39371.56
1587,39289.57
1588,39170.54
1589,39239.16
1590,39461.95
1591,39480.51
1592,39059.22
1593,38598.66
1594,38647.3
1595,39163
1596,39549.87
1597,39431.76
1598,39185.71
1599,39293.47
1600,39704
1601,40004.63
1602,39980.26
1603,39859.98
1604,39894.88
1605,40042.82
1606,40124.1
1607,40096.94
1608,40127.71
1609,40345.41
1610,40597.04
1611,40648.67
1612,40504.64
1613,40413.8
1614,40560.65
1615,40879.38
1616,41249.38
1617,41511.02
1618,41478.55
1619,41132.92
1620,40804.66
1621,40808.23
1622,41014.35
1623,41102.64
1624,40964.11
1625,40773.1
1626,40672.14
1627,40580.99
1628,40370.15
1629,40092.73
1630,39955.46
1631,40062.37
1632,40245.66
1633,40317.73
1634,40290.05
1635,40275.12
1636,40309.31
1637,40313.61
1638,40229.21
1639,40138.31
1640,40158.59
1641,40285.66
1642,40406.42
1643,40426.48
1644,40310.79
1645,40050.87
1646,39786.43
1647,39730.56
1648,39939.49
1649,40241.11
1650,40460.73
1651,40494.72
1652,40272.42
1653,39947.72
1654,39856.61
1655,40146.71
1656,40523.64
1657,40676.11
1658,40619.71
1659,40510.15
1660,40406.52
1661,40250.04
1662,40039.41
1663,39996.93
1664,40356.32
1665,40915.61
1666,41197.28
1667,41035.57
1668,40809.67
1669,40857.5
1670,41029.27
1671,41035.93
1672,40868.63
1673,40763.61
1674,40853.91
1675,41010.12
1676,41082.71
1677,41047.73
1678,40936.22
1679,40815.26
1680,40792.48
1681,40914.21
1682,41032.02
1683,40984.35
1684,40836.88
1685,40776.13
1686,40865.96
1687,40997.37
1688,41079.57
1689,41140.5
1690,41232.46
1691,41363.49
1692,41512.71
1693,41641.25
1694,41681.88
1695,41592.95
1696,41458.34
1697,41390.91
1698,41419.34
1699,41510.74
1700,41616.05
1701,41659.82
1702,41588.53
1703,41470.33
1704,41406.29
1705,41430.56
1706,41524.92
1707,41649.54
1708,41726.36
1709,41702.32
1710,41673.33
1711,41771.46
1712,41954.44
1713,42042.86
1714,41967.53
1715,41875.96
1716,41898.66
1717,41960.87
1718,41934.54
1719,41841.48
1720,41816.77
1721,41901.91
1722,41965.54
1723,41903.1
1724,41814.67
1725,41846.92
1726,41995.23
1727,42150.11
1728,42232.16
1729,42213.79
1730,42089.82
1731,41924.66
1732,41797.59
1733,41760.13
1734,41845.72
1735,42018.03
1736,42146.2
1737,42146.11
1738,42106.67
1739,42137.41
1740,42229.57
1741,42317.73
1742,42377.01
1743,42427.64
1744,42480.23
1745,42515.71
1746,42515.11
1747,42488.36
1748,42456.54
1749,42444.54
1750,42480.18
1751,42566.04
1752,42657.71
1753,42710.06
1754,42697.38
1755,42605.61
1756,42491.74
1757,42454.75
1758,42521.42
1759,42622.61
1760,42693.37
1761,42700.62
1762,42629.27
1763,42549.13
1764,42560.92
1765,42674.75
1766,42819.38
1767,42921.6
1768,42910.3
1769,42755.18
1770,42596.63
1771,42597.9
1772,42699.8
1773,42719.91
1774,42633.14
1775,42602.44
1776,42716.95
1777,42856.6
1778,42898.59
1779,42881.33
1780,42892.42
1781,42941.76
1782,42984
1783,42988.08
1784,42945.16
1785,42857
1786,42751.47
1787,42660.82
1788,42613.22
1789,42633.12
1790,42709.34
1791,42802.26
1792,42883.79
1793,42945.32
1794,42983.04
1795,43003
1796,43014
1797,43029.98
1798,43065.76
1799,43114.2
1800,43150.39
1801,43171.14
1802,43208.55
1803,43280.7
1804,43351.79
1805,43380.35
1806,43358.05
1807,43292.3
1808,43227.59
1809,43236.1
1810,43335.2
1811,43461.81
1812,43555.66
1813,43582.3
1814,43524.86
1815,43440.31
1816,43403.26
1817,43389.45
1818,43312.45
1819,43197.02
1820,43203.36
1821,43388.67
1822,43561.57
1823,43560.02
1824,43496.11
1825,43532.95
1826,43631.43
1827,43654.19
1828,43574.87
1829,43470.43
1830,43410.38
1831,43445.14
1832,43584.62
1833,43721.42
1834,43745.56
1835,43660.76
1836,43511.7
1837,43347.07
1838,43217.75
1839,43159.01
1840,43188.39
1841,43290.67
1842,43388.71
1843,43427.12
1844,43452.33
1845,43511.85
1846,43514.7
1847,43334.98
1848,43113.16
1849,43165.15
1850,43494.96
1851,43737.91
1852,43691.59
1853,43518.6
1854,43392.96
1855,43377.35
1856,43494
1857,43662.26
1858,43767.52
1859,43763.36
1860,43650.83
1861,43508.84
1862,43497.13
1863,43638.86
1864,43711.44
1865,43565.9
1866,43343.09
1867,43205.58
1868,43156.59
1869,43154.39
1870,43203.21
1871,43327.07
1872,43475.16
1873,43535.53
1874,43488.03
1875,43437.88
1876,43453.92
1877,43508.32
1878,43564.38
1879,43598.27
1880,43593.41
1881,43559.45
1882,43514.66
1883,43468.16
1884,43424.96
1885,43411.94
1886,43473.96
1887,43586.02
1888,43626.97
1889,43537.5
1890,43403.61
1891,43309.94
1892,43274.6
1893,43296.45
1894,43344.86
1895,43382.53
1896,43398.97
1897,43398.18
1898,43394.43
1899,43408.51
1900,43421.73
1901,43371.05
1902,43257.23
1903,43192.68
1904,43235.81
1905,43281.07
1906,43238.18
1907,43174.18
1908,43173.58
1909,43199.65
1910,43182.41
1911,43153.99
1912,43194.77
1913,43281.44
1914,43312.34
1915,43267.06
1916,43216.98
1917,43189.61
1918,43136.27
1919,43042.5
1920,42985.9
1921,43018.44
1922,43067.48
1923,43058.32
1924,43027.59
1925,43032.72
1926,43045.63
1927,43008.8
1928,42937.19
1929,42886.39
1930,42868.39
1931,42858.96
1932,42833.95
1933,42770.87
1934,42677.19
1935,42605.37
1936,42601.05
1937,42687.89
1938,42848.06
1939,42954.73
1940,42907.02
1941,42780.56
1942,42673.6
1943,42573.85
1944,42451.11
1945,42416.43
1946,42611.82
1947,42830.46
1948,42687.04
1949,42275.05
1950,42049.86
1951,42101.17
1952,42142.06
1953,42057.27
1954,41977.6
1955,42004.75
1956,42162.88
1957,42396.16
1958,42492.09
1959,42316.07
1960,42009.54
1961,41746.55
1962,41644.4
1963,41756.45
1964,41895.28
1965,41857.75
1966,41774.43
1967,41854.77
1968,41945.53
1969,41764.38
1970,41462.55
1971,41413.98
1972,41552.07
1973,41510.68
1974,41303.22
1975,41271.04
1976,41444.34
1977,41516.01
1978,41410.3
1979,41366.7
1980,41453.18
1981,41443.09
1982,41278.32
1983,41257.32
1984,41480.63
1985,41527.29
1986,41164.81
1987,40842.52
1988,40923.99
1989,41151.27
1990,41219.68
1991,41107.68
1992,40881.84
1993,40705.8
1994,40719.24
1995,40793.89
1996,40745.46
1997,40582.23
1998,40385.68
1999,40238.7
2000,40209.84
2001,40240.92
2002,40225.54
2003,40205.23
2004,40288.35
2005,40387.62
2006,40309.52
2007,40113.76
2008,40026.98
2009,40047.92
2010,40001.89
2011,39885.73
2012,39841.62
2013,39833.63
2014,39661.48
2015,39386.96
2016,39341.72
2017,39554.86
2018,39704.75
2019,39677.73
2020,39633.91
2021,39603.77
2022,39430.38
2023,39151.6
2024,39090.55
2025,39285.17
2026,39321.93
2027,39065.63
2028,38873.82
2029,38884.6
2030,38804.2
2031,38552.33
2032,38484.86
2033,38698.19
2034,38746.74
2035,38463.49
2036,38302.79
2037,38465.91
2038,38541.66
2039,38318.11
2040,38107.74
2041,38110.05
2042,38178.13
2043,38164.46
2044,38003.77
2045,37718.82
2046,37490.05
2047,37441.8
2048,37545.23
2049,37706.57
2050,37739.75
2051,37573.66
2052,37387.04
2053,37264.78
2054,37051.61
2055,36713.15
2056,36497.2
2057,36511.96
2058,36548.49
2059,36492.93
2060,36462.7
2061,36493.79
2062,36442.16
2063,36276.45
2064,36178.17
2065,36197.58
2066,36150.42
2067,35958
2068,35728.9
2069,35588.67
2070,35659.4
2071,35838.35
2072,35741.64
2073,35387.89
2074,35292.05
2075,35511.86
2076,35572.36
2077,35392.75
2078,35316.54
2079,35381.08
2080,35323.41
2081,35056.63
2082,34664.59
2083,34346.88
2084,34356.86
2085,34511.18
2086,34366
2087,34051.75
2088,34012.34
2089,34156.39
2090,34130.46
2091,33942.13
2092,33754.59
2093,33546.05
2094,33241.99
2095,32941.42
2096,32783.45
2097,32771.71
2098,32836.79
2099,32781.69
2100,32492.81
2101,32303.15
2102,32447.67
2103,32520.01
2104,32240.88
2105,32002.96
2106,32056.42
2107,32090.6
2108,31891.41
2109,31566.78
2110,31291.79
2111,31283.16
2112,31449.52
2113,31312.6
2114,30876.9
2115,30672.65
2116,30768.85
2117,30816.8
2118,30729.2
2119,30608.56
2120,30416.88
2121,30071.05
2122,29826.82
2123,29995.16
2124,30200.81
2125,29965.08
2126,29598.16
2127,29492.86
2128,29449.36
2129,29235.37
2130,28931.24
2131,28653.28
2132,28470
2133,28381.04
2134,28278.44
2135,28153.56
2136,28141.25
2137,28169.7
2138,27958.81
2139,27638.45
2140,27633.16
2141,27735.95
2142,27421.34
2143,26913.35
2144,26707.87
2145,26738.58
2146,26762.83
2147,26661.53
2148,26427.1
2149,26295.14
2150,26369.41
2151,26350.43
2152,26064.75
2153,25642.86
2154,25251.04
2155,25053.5
2156,25006.03
2157,24896.37
2158,24790.71
2159,24891.44
2160,24953.36
2161,24643.66
2162,24358.11
2163,24502.3
2164,24559.49
2165,24085.44
2166,23409.16
2167,22919.98
2168,22874.16
2169,23102.35
2170,22936.28
2171,22487.02
2172,22533.45
2173,22833.98
2174,22611.22
2175,22183.36
2176,22157.38
2177,22120.75
2178,21651.66
2179,21286.68
2180,21359.74
2181,21371.57
2182,21072.58
2183,20726.7
2184,20572.88
2185,20749.4
2186,20949.38
2187,20670.39
2188,20142.47
2189,19837.48
2190,19831.73
2191,19988.8
2192,19887.93
2193,19383.16
2194,18931.22
2195,18758.48
2196,18724.54
2197,18643.54
2198,18352.63
2199,18061.08
2200,18073.52
2201,18163.71
2202,18070.13
2203,17982.58
2204,17976.5
2205,17728.54
2206,17279.79
2207,17152.99
2208,17237.56
2209,16974.35
2210,16563.15
2211,16473.5
2212,16571.86
2213,16589.54
2214,16407.12
2215,16060.54
2216,15802.54
2217,15683.76
2218,15529.11
2219,15363.01
2220,15310.36
2221,15233.73
2222,14979.74
2223,14726.21
2224,14628.5
2225,14630.99
2226,14631.95
2227,14514.96
2228,14305.87
2229,14119.61
2230,13919.11
2231,13638.03
2232,13372.62
2233,13218.33
2234,13173.68
2235,13145.48
2236,12956.89
2237,12707.89
2238,12648.25
2239,12544.61
2240,12140.27
2241,11905.7
2242,12076.7
2243,12054.71
2244,11704.94
2245,11518.91
2246,11449.28
2247,11153.91
2248,10850.72
2249,10805.93
2250,10781.93
2251,10639.33
2252,10555.91
2253,10465.57
2254,10108.37
2255,9777.267
2256,9863.672
2257,9929.535
2258,9629.946
2259,9319.588
2260,9193.485
2261,9144.052
2262,9074.625
2263,8938.248
2264,8857.546
2265,8894.915
2266,8798.594
2267,8501.358
2268,8257.935
2269,8151.864
2270,8120.714
2271,8110.313
2272,8081.532
2273,8025.954
2274,7864.472
2275,7430.255
2276,7007.55
2277,7104.841
2278,7293.193
2279,7054.107
2280,6772.078
2281,6682.818
2282,6547.064
2283,6354.433
2284,6280.841
2285,6356.47
2286,6475.998
2287,6320.047
2288,5854.938
2289,5480.098
2290,5359.779
2291,5450.283
2292,5596.945
2293,5633.534
2294,5458.761
2295,5129.286
2296,4857.16
2297,4661.667
2298,4484.309
2299,4429.221
2300,4450.873
