400,30976.18
401,30954.27
402,30906.11
403,30846.46
404,30792.06
405,30755.39
406,30729.44
407,30701.55
408,30660.55
409,30616.4
410,30595.32
411,30623.66
412,30706.24
413,30806.37
414,30882.75
415,30903.16
416,30882.75
417,30852.35
418,30840.88
419,30847.13
420,30844.33
421,30805.13
422,30722.07
423,30629.33
424,30566.18
425,30563.34
426,30603.94
427,30654.34
428,30681.98
429,30670.97
430,30620.09
431,30528.7
432,30406.28
433,30283.94
434,30195.43
435,30166.54
436,30178.76
437,30198.14
438,30192.16
439,30151.48
440,30086.56
441,30008.53
442,29930.32
443,29868.69
444,29840.79
445,29856.62
446,29889.16
447,29899.41
448,29851.32
449,29751.54
450,29640.31
451,29558.35
452,29523.46
453,29511.89
454,29495.62
455,29451.55
456,29378.38
457,29280.96
458,29164.82
459,29044.16
460,28939.02
461,28869.19
462,28839.84
463,28833.7
464,28831.68
465,28817.77
466,28786.82
467,28736.18
468,28664.25
469,28579.37
470,28495.3
471,28425.51
472,28374.32
473,28334.99
474,28300.11
475,28263.54
476,28222.68
477,28175.5
478,28120.15
479,28055.84
480,27982.19
481,27899.4
482,27818.89
483,27762.28
484,27751.31
485,27786.67
486,27827.37
487,27827.67
488,27755.98
489,27645.19
490,27546.64
491,27506.7
492,27516.54
493,27531.8
494,27508.44
495,27435.14
496,27345.06
497,27274.38
498,27243.61
499,27226.98
500,27190.26
501,27106.46
502,26997.89
503,26907.6
504,26876.34
505,26903.54
506,26951.89
507,26983.09
508,26974.75
509,26933.62
510,26869.56
511,26791.52
512,26704.98
513,26614.51
514,26524.32
515,26435.6
516,26347.85
517,26260.66
518,26177.06
519,26103.82
520,26047.88
521,26012.59
522,25993.26
523,25984.12
524,25978.4
525,25964.52
526,25929.42
527,25861.78
528,25769.14
529,25670.93
530,25586.31
531,25521.98
532,25469.2
533,25418.3
534,25363.52
535,25308.74
536,25259.29
537,25218.91
538,25182.96
539,25144.08
540,25095.71
541,25040.19
542,24985.71
543,24940.29
544,24903.79
545,24865.81
546,24815.38
547,24748.17
548,24676.17
549,24613.75
550,24571.87
551,24544.61
552,24520.8
553,24490.13
554,24451.4
555,24409
556,24367.28
557,24327.42
558,24286.94
559,24243.19
560,24196.27
561,24152.24
562,24117.92
563,24096.59
564,24076.43
565,24041.64
566,23979.13
567,23899.16
568,23824.12
569,23775.31
570,23750.66
571,23725.85
572,23676
573,23595.06
574,23509.62
575,23449.4
576,23432.08
577,23436.21
578,23432.45
579,23396.46
580,23335.33
581,23268.44
582,23213.69
583,23169.59
584,23120.73
585,23051.89
586,22963.38
587,22875.1
588,22808.08
589,22774.05
590,22763.79
591,22765.27
592,22767.16
593,22761.13
594,22739.58
595,22696.13
596,22633.36
597,22558.2
598,22477.36
599,22393.96
600,22308.12
601,22220.02
602,22138.28
603,22083.67
604,22077.78
605,22124.46
606,22183.14
607,22206.5
608,22161.19
609,22076.52
610,21999.53
611,21971.05
612,21981.25
613,21994.85
614,21978.25
615,21927.62
616,21864.39
617,21810.38
618,21772.75
619,21738.01
620,21691.2
621,21626.66
622,21560.78
623,21513.06
624,21494.67
625,21482.21
626,21443.48
627,21353.43
628,21239.19
629,21151.12
630,21135.47
631,21182.64
632,21241.9
633,21262.81
634,21228.32
635,21160.95
636,21085.36
637,21017.52
638,20956.7
639,20900.3
640,20846.47
641,20795.73
642,20749.08
643,20707.09
644,20668.12
645,20629.78
646,20589.85
647,20547.69
648,20503.54
649,20457.73
650,20412.47
651,20371.6
652,20338.91
653,20314.74
654,20294.78
655,20274.44
656,20249.77
657,20218.19
658,20177.3
659,20127.43
660,20078.16
661,20040.99
662,20023.88
663,20015.18
664,19996.56
665,19952.34
666,19890.97
667,19833.98
668,19801.6
669,19791.82
670,19784.32
671,19758.77
672,19711.76
673,19660.86
674,19624.75
675,19608.19
676,19589.97
677,19546.09
678,19464.6
679,19367.98
680,19284.76
681,19236.64
682,19215.07
683,19203.09
684,19185.29
685,19156.91
686,19117.8
687,19068.54
688,19017.97
689,18980.2
690,18968.49
691,18977.91
692,18986.52
693,18972.21
694,18926.62
695,18859.96
696,18783.72
697,18708.27
698,18641.91
699,18592.67
700,18563.84
701,18545.13
702,18523.87
703,18492.28
704,18463.65
705,18456.85
706,18484.82
707,18522.71
708,18530.71
709,18474.3
710,18369.76
711,18262.3
712,18194.83
713,18171.62
714,18166.02
715,18151.26
716,18118.91
717,18080.9
718,18050.06
719,18030.74
720,18014.17
721,17990.53
722,17954.89
723,17912.8
724,17871.18
725,17835.93
726,17810.09
727,17796.14
728,17793.67
729,17789.77
730,17768.23
731,17717.34
732,17652.7
733,17600.19
734,17582.02
735,17588.63
736,17593.97
737,17573.68
738,17526.45
739,17467.13
740,17410.48
741,17363.92
742,17327.92
743,17302.52
744,17281.87
745,17252.78
746,17201.85
747,17130.28
748,17063.19
749,17027.72
750,17034.09
751,17055.68
752,17061.13
753,17030.6
754,16977.47
755,16921.12
756,16877.38
757,16848.62
758,16833.9
759,16830.68
760,16828.06
761,16812.4
762,16772.93
763,16718.34
764,16665.68
765,16629.82
766,16605.01
767,16574.04
768,16521.55
769,16457.72
770,16410.82
771,16407.45
772,16437.31
773,16456.97
774,16423.44
775,16335.18
776,16237.45
777,16177.1
778,16169.77
779,16187.06
780,16197.51
781,16182.56
782,16146.29
783,16095.1
784,16037.85
785,15988.95
786,15963.45
787,15966.86
788,15978.22
789,15972.14
790,15932.96
791,15878.78
792,15834.93
793,15819.48
794,15819.09
795,15811.91
796,15780.95
797,15735.39
798,15693.24
799,15669.47
800,15658.99
801,15648.32
802,15625.37
803,15589.36
804,15545.28
805,15497.99
806,15451.19
807,15407.83
808,15370.4
809,15335.55
810,15295.63
811,15243.5
812,15181.49
813,15120.05
814,15069.58
815,15034.22
816,15011.83
817,14999.9
818,14992.66
819,14980.5
820,14953.86
821,14912.39
822,14868.42
823,14834.98
824,14814.05
825,14789.97
826,14745.74
827,14680.37
828,14622.48
829,14603.64
830,14633.67
831,14676.06
832,14688.57
833,14648.04
834,14578.16
835,14509.62
836,14463.85
837,14436.35
838,14418.03
839,14400.97
840,14380.84
841,14354.06
842,14319.06
843,14281.77
844,14249.82
845,14228.15
846,14210.36
847,14187.11
848,14151.21
849,14105.72
850,14056.76
851,14010.44
852,13972.85
853,13950.04
854,13945.59
855,13948.08
856,13940.45
857,13908.96
858,13861.59
859,13815.36
860,13785.14
861,13769.96
862,13761.58
863,13752.16
864,13737.1
865,13713.45
866,13679.14
867,13640.29
868,13607.4
869,13589.8
870,13584.32
871,13580.5
872,13568.65
873,13548.51
874,13525.71
875,13505.39
876,13485.53
877,13459.25
878,13420.31
879,13371.3
880,13321.11
881,13278.63
882,13250.82
883,13243.22
884,13260.38
885,13292.44
886,13318.08
887,13316.81
888,13286.7
889,13241.27
890,13194.35
891,13157.85
892,13141.97
893,13155.77
894,13187.38
895,13206.1
896,13182.34
897,13121.05
898,13059.41
899,13034.07
900,13047.5
901,13069.32
902,13068.98
903,13038.86
904,12993.84
905,12949.44
906,12914.99
907,12893.7
908,12888.21
909,12895.3
910,12905.76
911,12910.33
912,12904.29
913,12887.55
914,12860.36
915,12826.74
916,12794.57
917,12771.54
918,12757.38
919,12743.63
920,12721.56
921,12684.65
922,12628.6
923,12549.84
924,12458.64
925,12379.37
926,12335.86
927,12326.45
928,12323.82
929,12300.71
930,12254.36
931,12206.22
932,12177.77
933,12170.49
934,12166.46
935,12147.82
936,12113.7
937,12079.15
938,12059.08
939,12053.48
940,12048.74
941,12031.41
942,11999.99
943,11963.53
944,11931.21
945,11908.44
946,11897.46
947,11899.91
948,11908.94
949,11910.88
950,11892.83
951,11856.46
952,11814.7
953,11780.28
954,11759.33
955,11753.17
956,11762.25
957,11777.51
958,11783.28
959,11765.45
960,11729.06
961,11691.66
962,11669.69
963,11665.49
964,11672.78
965,11684.82
966,11691.4
967,11680.32
968,11641.89
969,11588.51
970,11544.25
971,11530.22
972,11543.35
973,11568.81
974,11592.25
975,11603.34
976,11593.57
977,11556.92
978,11503.93
979,11451.83
980,11415.01
981,11391.08
982,11371.47
983,11349.58
984,11329.1
985,11317.15
986,11318.36
987,11325.71
988,11328.75
989,11319.66
990,11301.64
991,11280.8
992,11261.69
993,11243.07
994,11222.37
995,11198.15
996,11172.74
997,11149.2
998,11129.19
999,11110.24
1000,11089.19
1001,11064.94
1002,11041.69
1003,11024.47
1004,11014.46
1005,11004.39
1006,10985.88
1007,10953.19
1008,10912.66
1009,10874.1
1010,10846.04
1011,10832.08
1012,10834.53
1013,10851.79
1014,10868.58
1015,10866.74
1016,10836.95
1017,10796.19
1018,10766.24
1019,10759.57
1020,10765.03
1021,10767.84
1022,10758.83
1023,10740.96
1024,10718.79
1025,10697.79
1026,10685.12
1027,10687.94
1028,10703.61
1029,10714.14
1030,10700.66
1031,10660.84
1032,10614.21
1033,10581.22
1034,10567.45
1035,10561.98
1036,10553.45
1037,10539.05
1038,10523.85
1039,10512.86
1040,10505.51
1041,10496.9
1042,10482.51
1043,10463
1044,10442.3
1045,10424.32
1046,10412.29
1047,10409.1
1048,10416.51
1049,10428.73
1050,10436.83
1051,10433.6
1052,10421.03
1053,10404.08
1054,10387.98
1055,10378.93
1056,10383.4
1057,10403
1058,10424
1059,10429.62
1060,10412.59
1061,10389.02
1062,10378.42
1063,10387.04
1064,10395.64
1065,10382.49
1066,10344.7
1067,10307.52
1068,10297.71
1069,10318.57
1070,10346.2
1071,10356.43
1072,10349.03
1073,10345.3
1074,10365.46
1075,10406.42
1076,10448.96
1077,10475.74
1078,10489.14
1079,10501.83
1080,10525.09
1081,10560.84
1082,10607.33
1083,10659.96
1084,10701.18
1085,10709.77
1086,10676.59
1087,10632.35
1088,10615.84
1089,10644.88
1090,10687.5
1091,10704.79
1092,10678.64
1093,10626.88
1094,10570.68
1095,10521.83
1096,10480.32
1097,10445.31
1098,10414.65
1099,10385.01
1100,10353.39
1101,10321.54
1102,10294.39
1103,10276.1
1104,10264.58
1105,10254.71
1106,10241.78
1107,10223.39
1108,10197.96
1109,10166.98
1110,10143.41
1111,10142.71
1112,10169.35
1113,10200.47
1114,10209.35
1115,10189.2
1116,10167.26
1117,10173.2
1118,10209.29
1119,10245.15
1120,10250.09
1121,10219.35
1122,10169.61
1123,10117.27
1124,10070.05
1125,10030.67
1126,10001.19
1127,9979.656
1128,9962.651
1129,9947.533
1130,9934.835
1131,9925.865
1132,9917.739
1133,9896.85
1134,9848.116
1135,9771.595
1136,9692.737
1137,9638.717
1138,9616.919
1139,9612.6
1140,9610.443
1141,9603.471
1142,9590.903
1143,9572.603
1144,9552.389
1145,9536.009
1146,9527.771
1147,9524.877
1148,9522.348
1149,9516.742
1150,9509.264
1151,9501.974
1152,9495.916
1153,9490.216
1154,9483.797
1155,9476.014
1156,9466.733
1157,9455.986
1158,9445.771
1159,9439.608
1160,9439.984
1161,9440.677
1162,9431.236
1163,9404.549
1164,9369.336
1165,9338.963
1166,9324.019
1167,9327.393
1168,9350.557
1169,9388.529
1170,9425.466
1171,9445.007
1172,9443.438
1173,9430.185
1174,9414.726
1175,9400.32
1176,9386.241
1177,9371.472
1178,9353.608
1179,9329.714
1180,9297.894
1181,9259.843
1182,9218.076
1183,9180.07
1184,9163.228
1185,9185.266
1186,9235.749
1187,9270.701
1188,9247.844
1189,9173.568
1190,9088.923
1191,9031.327
1192,9008.723
1193,9016.865
1194,9047.042
1195,9074.358
1196,9070.363
1197,9026.974
1198,8977.433
1199,8958.82
1200,8971.57
1201,8973.294
1202,8923.813
1203,8840.58
1204,8780.032
1205,8788.838
1206,8849.355
1207,8919.628
1208,8965.654
1209,8979.167
1210,8957.201
1211,8908.941
1212,8864.782
1213,8856.019
1214,8886.215
1215,8931.73
1216,8969.311
1217,8990.16
1218,8993.371
1219,8979.549
1220,8955.921
1221,8931.631
1222,8913.439
1223,8902.442
1224,8898.815
1225,8899.275
1226,8896.101
1227,8881.898
1228,8857.578
1229,8829.876
1230,8805.098
1231,8786.233
1232,8775.046
1233,8771.657
1234,8771.358
1235,8768.646
1236,8763.783
1237,8765.842
1238,8783.511
1239,8807.02
1240,8811.555
1241,8777.745
1242,8727.087
1243,8698.382
1244,8715.403
1245,8752.16
1246,8772.703
1247,8762.559
1248,8742.536
1249,8735.548
1250,8743.299
1251,8749.405
1252,8739.942
1253,8722.656
1254,8714.675
1255,8725.401
1256,8738.708
1257,8733.49
1258,8705.65
1259,8678.231
1260,8675.085
1261,8693.453
1262,8709.054
1263,8701.583
1264,8680.591
1265,8667.506
1266,8675.095
1267,8690.66
1268,8697.155
1269,8690.959
1270,8687.257
1271,8700.967
1272,8725.247
1273,8738.151
1274,8722.985
1275,8692.301
1276,8668.183
1277,8664.248
1278,8674.227
1279,8689.157
1280,8704.512
1281,8720.716
1282,8738.195
1283,8755
1284,8767.908
1285,8774.517
1286,8775.577
1287,8772.604
1288,8767.154
1289,8760.861
1290,8755.289
1291,8750.747
1292,8746.547
1293,8741.585
1294,8732.533
1295,8715.257
1296,8691.285
1297,8676.328
1298,8687.642
1299,8722.948
1300,8757.784
1301,8769.464
1302,8762.077
1303,8753.686
1304,8756.348
1305,8760.421
1306,8751.675
1307,8728.461
1308,8708.264
1309,8708.526
1310,8725.296
1311,8739.875
1312,8737.925
1313,8727.199
1314,8721.897
1315,8728.797
1316,8740.272
1317,8747.458
1318,8748.807
1319,8749.049
1320,8752.527
1321,8760.07
1322,8771.212
1323,8786.09
1324,8806.251
1325,8833.327
1326,8866.297
1327,8901.47
1328,8934.082
1329,8952.77
1330,8943.341
1331,8905.361
1332,8875.209
1333,8893.934
1334,8960.24
1335,9025.661
1336,9045.64
1337,9026.19
1338,8997.071
1339,8980.37
1340,8975.562
1341,8978.186
1342,8987.224
1343,9005.696
1344,9034.717
1345,9058.103
1346,9051.27
1347,9003.151
1348,8942.397
1349,8904.239
1350,8902.661
1351,8926.913
1352,8963.797
1353,8991.96
1354,8986.184
1355,8937.289
1356,8880.881
1357,8859.169
1358,8881.431
1359,8920.925
1360,8952.071
1361,8971.026
1362,8983.373
1363,8993.091
1364,9000.048
1365,9003.673
1366,9007.482
1367,9018.976
1368,9043.65
1369,9073.803
1370,9096.801
1371,9106.555
1372,9110.891
1373,9118.969
1374,9132.588
1375,9147.498
1376,9160.002
1377,9170.029
1378,9178.608
1379,9186.785
1380,9195.641
1381,9205.943
1382,9214.679
1383,9216.367
1384,9207.17
1385,9189.467
1386,9167.117
1387,9146.131
1388,9135.317
1389,9141.566
1390,9154.502
1391,9155.328
1392,9133.7
1393,9101.59
1394,9074.02
1395,9053.593
1396,9031.137
1397,9000.14
1398,8971.188
1399,8960.498
1400,8968.489
1401,8967.269
1402,8929.917
1403,8876.689
1404,8858.64
1405,8905.78
1406,8973.174
1407,9000.86
1408,8970.663
1409,8913.82
1410,8862.495
1411,8835.088
1412,8844.25
1413,8890.994
1414,8951.691
1415,9000.841
1416,9031.944
1417,9052.617
1418,9070.204
1419,9089.62
1420,9114.981
1421,9142.39
1422,9157.779
1423,9149.874
1424,9132.039
1425,9128.272
1426,9146.288
1427,9158.896
1428,9137.254
1429,9092.445
1430,9064.585
1431,9078.751
1432,9102.576
1433,9091.942
1434,9046.623
1435,9017.49
1436,9046.29
1437,9099.48
1438,9114.948
1439,9068.039
1440,9003.021
1441,8967.79
1442,8968.398
1443,8985.482
1444,9003.472
1445,9018.932
1446,9030.429
1447,9033.271
1448,9019.768
1449,8987.98
1450,8962.694
1451,8975.631
1452,9026.456
1453,9071.383
1454,9070.547
1455,9034.663
1456,8996.248
1457,8979.146
1458,8989.838
1459,9030.94
1460,9084.276
1461,9118.703
1462,9117.744
1463,9107.282
1464,9118.827
1465,9149.421
1466,9166.214
1467,9147.245
1468,9118.96
1469,9119.019
1470,9149.784
1471,9172.199
1472,9153.984
1473,9115.255
1474,9094.199
1475,9102.801
1476,9112.309
1477,9095.5
1478,9065.334
1479,9053.565
1480,9074.237
1481,9105.3
1482,9122.441
1483,9124.516
1484,9124.395
1485,9129.648
1486,9133.543
1487,9127.424
1488,9108.289
1489,9077.396
1490,9037.769
1491,8997.815
1492,8966.69
1493,8946.151
1494,8931.175
1495,8919.367
1496,8919.961
1497,8944.439
1498,8985.627
1499,9016.044
1500,9014.353
1501,8993.989
1502,8978.524
1503,8978.615
1504,8988.627
1505,9003.141
1506,9023.877
1507,9054.826
1508,9089.77
1509,9107.963
1510,9092.928
1511,9063.017
1512,9050.021
1513,9064.268
1514,9082.233
1515,9081.908
1516,9073.735
1517,9081.967
1518,9110.133
1519,9126.48
1520,9102.575
1521,9062.458
1522,9054.212
1523,9097.81
1524,9162.595
1525,9214.524
1526,9235.568
1527,9215.552
1528,9164.626
1529,9130.145
1530,9154.854
1531,9209.68
1532,9230.753
1533,9196.617
1534,9164.544
1535,9190.745
1536,9252.756
1537,9290.299
1538,9277.762
1539,9252.582
1540,9252.708
1541,9267.754
1542,9264.979
1543,9232.543
1544,9194.834
1545,9176.918
1546,9182.257
1547,9204.801
1548,9237.105
1549,9269.569
1550,9293.145
1551,9303.94
1552,9300.299
1553,9289.689
1554,9292.838
1555,9323.234
1556,9346.131
1557,9310.885
1558,9226.545
1559,9179.486
1560,9235.866
1561,9334.171
1562,9375.78
1563,9342.309
1564,9305.731
1565,9323.34
1566,9370.07
1567,9401.055
1568,9409.723
1569,9426.101
1570,9471.116
1571,9529.387
1572,9577.98
1573,9598.193
1574,9574.676
1575,9511.038
1576,9462.386
1577,9485.948
1578,9560.953
1579,9616.919
1580,9616.389
1581,9594.687
1582,9592.231
1583,9612.113
1584,9638.753
1585,9656.697
1586,9650.998
1587,9612.554
1588,9568.061
1589,9556.92
1590,9584.388
1591,9612.732
1592,9613.22
1593,9609.321
1594,9636.895
1595,9689.438
1596,9720.729
1597,9703.354
1598,9673.41
1599,9675.339
1600,9702.378
1601,9713.036
1602,9692.306
1603,9684.016
1604,9731.108
1605,9807.08
1606,9852.983
1607,9853.398
1608,9858.496
1609,9911.317
1610,9989.838
1611,10052.44
1612,10089.43
1613,10123.84
1614,10174.48
1615,10241.12
1616,10317.6
1617,10372.28
1618,10356.2
1619,10257.71
1620,10143.95
1621,10082.02
1622,10065.37
1623,10055.24
1624,10025.88
1625,9969.201
1626,9884.618
1627,9798.674
1628,9743.887
1629,9728.797
1630,9741.739
1631,9766.045
1632,9774.186
1633,9741.999
1634,9690.106
1635,9661.676
1636,9670.602
1637,9686.591
1638,9683.112
1639,9669.039
1640,9662.794
1641,9665.359
1642,9662.171
1643,9643.333
1644,9612.522
1645,9576.561
1646,9550.462
1647,9553.046
1648,9580.837
1649,9597.998
1650,9580.528
1651,9568.16
1652,9613.698
1653,9694.809
1654,9728.178
1655,9671.91
1656,9582.764
1657,9524.788
1658,9514.621
1659,9547.724
1660,9603.019
1661,9639.511
1662,9630.301
1663,9601.925
1664,9590.416
1665,9606.329
1666,9643.883
1667,9692.593
1668,9734.376
1669,9753.468
1670,9750.026
1671,9729.523
1672,9702.688
1673,9684.835
1674,9684.047
1675,9690.991
1676,9696.392
1677,9708.999
1678,9744.414
1679,9792.383
1680,9813.3
1681,9786.127
1682,9751.608
1683,9755.48
1684,9779.304
1685,9770.756
1686,9723.17
1687,9694.037
1688,9724.129
1689,9772.383
1690,9783.368
1691,9761.698
1692,9750.561
1693,9770.101
1694,9801.781
1695,9824.255
1696,9819.819
1697,9774.803
1698,9718.204
1699,9709.742
1700,9763.72
1701,9810.914
1702,9793.898
1703,9756.596
1704,9768.644
1705,9819.336
1706,9835.617
1707,9790.578
1708,9748.444
1709,9767.182
1710,9820.455
1711,9857.797
1712,9868.183
1713,9871.716
1714,9876.169
1715,9864.281
1716,9822.418
1717,9768.844
1718,9731.084
1719,9727.255
1720,9768.092
1721,9842.684
1722,9901.732
1723,9906.014
1724,9880.788
1725,9867.037
1726,9871.784
1727,9878.609
1728,9882.842
1729,9899.429
1730,9936.319
1731,9966.976
1732,9960.393
1733,9928.952
1734,9910.424
1735,9909.918
1736,9887.57
1737,9825.654
1738,9788.081
1739,9840.231
1740,9923.431
1741,9922.041
1742,9834.746
1743,9786.558
1744,9847.506
1745,9933.919
1746,9956.922
1747,9941.045
1748,9949.647
1749,9977.674
1750,9962.538
1751,9891.674
1752,9848.373
1753,9897.747
1754,9980.967
1755,10013.46
1756,9996.238
1757,9982.023
1758,9984.375
1759,9964.307
1760,9905.611
1761,9868.47
1762,9911.505
1763,9987.513
1764,10009.6
1765,9980.486
1766,9982.785
1767,10045.75
1768,10092.93
1769,10062.39
1770,10002.61
1771,9984.303
1772,10010.11
1773,10043.88
1774,10062.08
1775,10056.69
1776,10026.18
1777,9982.79
1778,9941.194
1779,9917.474
1780,9926.538
1781,9960.438
1782,9995.004
1783,10012.66
1784,10005.79
1785,9977.051
1786,9957.125
1787,9974.766
1788,10012.11
1789,10034.21
1790,10031.05
1791,10012.76
1792,9993.716
1793,9994.005
1794,10026.64
1795,10080.06
1796,10134.59
1797,10148.89
1798,10078.12
1799,9972.996
1800,9961.692
1801,10069.82
1802,10156.88
1803,10121.81
1804,10034.59
1805,9987.138
1806,9993.873
1807,10037.13
1808,10084.99
1809,10095.23
1810,10060.72
1811,10025.6
1812,10023.7
1813,10048.75
1814,10085.29
1815,10105.42
1816,10081.06
1817,10035.37
1818,10023.99
1819,10053.06
1820,10068.21
1821,10041.77
1822,10014.02
1823,10025.76
1824,10079.96
1825,10164.71
1826,10228
1827,10201.5
1828,10104.3
1829,10035.85
1830,10049.32
1831,10116.5
1832,10196.63
1833,10234.35
1834,10186.99
1835,10101.79
1836,10053.37
1837,10059.75
1838,10102.03
1839,10145.49
1840,10138.8
1841,10077.28
1842,10048.71
1843,10111.28
1844,10181.43
1845,10164.16
1846,10093.68
1847,10052.45
1848,10076.86
1849,10169.64
1850,10281.93
1851,10305.84
1852,10209.4
1853,10118.21
1854,10125.78
1855,10148.69
1856,10089.78
1857,10006.77
1858,10005.41
1859,10055.23
1860,10041.24
1861,9958.104
1862,9918.396
1863,9977.05
1864,10077.92
1865,10160.63
1866,10185.64
1867,10133.52
1868,10067.47
1869,10066.12
1870,10111.86
1871,10138.97
1872,10125.61
1873,10087.52
1874,10045.78
1875,10026.96
1876,10045.28
1877,10087.62
1878,10131.42
1879,10133.8
1880,10061.93
1881,9968.481
1882,9930.154
1883,9952.831
1884,10002.17
1885,10055.88
1886,10102.83
1887,10133.05
1888,10137.72
1889,10114.03
1890,10071.86
1891,10017.83
1892,9942.587
1893,9847.42
1894,9807.698
1895,9903.164
1896,10037.49
1897,10036.86
1898,9922.935
1899,9864.685
1900,9915.031
1901,9990.438
1902,10036.68
1903,10061.7
1904,10068.91
1905,10035.37
1906,9954.939
1907,9901.969
1908,9945.771
1909,10011.01
1910,9985.402
1911,9904.705
1912,9879.025
1913,9931.762
1914,10017.82
1915,10081.45
1916,10058.18
1917,9950.76
1918,9868.243
1919,9880.724
1920,9949.357
1921,10023.08
1922,10059.77
1923,10031.02
1924,9965.41
1925,9906.522
1926,9883.914
1927,9916.224
1928,9969.734
1929,9983.128
1930,9954.521
1931,9929.904
1932,9924.48
1933,9917.83
1934,9904.437
1935,9904.03
1936,9920.712
1937,9922.167
1938,9886.03
1939,9830.765
1940,9783.852
1941,9779.858
1942,9838.195
1943,9887.28
1944,9843.116
1945,9757.531
1946,9733.843
1947,9769.437
1948,9800.339
1949,9798.617
1950,9766.229
1951,9729.086
1952,9735.465
1953,9789.467
1954,9836.44
1955,9845.419
1956,9831.968
1957,9812.038
1958,9792.711
1959,9774.624
1960,9743.636
1961,9692.043
1962,9644.793
1963,9628.274
1964,9640.574
1965,9669.379
1966,9689.621
1967,9673.626
1968,9611.36
1969,9507.375
1970,9430.241
1971,9475.495
1972,9593.683
1973,9636.996
1974,9579.952
1975,9505.374
1976,9463.314
1977,9464.078
1978,9484.753
1979,9463.331
1980,9400.224
1981,9395.347
1982,9482.353
1983,9556.95
1984,9544.554
1985,9469.38
1986,9376.128
1987,9328.48
1988,9362.523
1989,9417.415
1990,9428.556
1991,9388.969
1992,9317.252
1993,9285.481
1994,9356.881
1995,9470.198
1996,9530.592
1997,9486.809
1998,9326.097
1999,9193.923
2000,9270.987
2001,9451.755
2002,9511.014
2003,9454.019
2004,9407.24
2005,9385.888
2006,9338.532
2007,9281.451
2008,9274.454
2009,9292.78
2010,9250.421
2011,9176.16
2012,9192.874
2013,9265.343
2014,9212.52
2015,9061.563
2016,9054.805
2017,9198.699
2018,9227.337
2019,9079.069
2020,8957.068
2021,8960.645
2022,9031.642
2023,9107.771
2024,9136.476
2025,9094.938
2026,9004.056
2027,8911.299
2028,8899.091
2029,8968.452
2030,8981.833
2031,8891.272
2032,8825.534
2033,8844.434
2034,8852.534
2035,8799.744
2036,8750.367
2037,8748.922
2038,8778.129
2039,8819.369
2040,8864.844
2041,8882.985
2042,8793.304
2043,8608.584
2044,8539.926
2045,8665.635
2046,8747.761
2047,8655.92
2048,8554.605
2049,8565.66
2050,8653.018
2051,8741.595
2052,8717.291
2053,8558.317
2054,8431.593
2055,8427.01
2056,8445.792
2057,8419.412
2058,8375.05
2059,8350.505
2060,8383.129
2061,8444.708
2062,8396.139
2063,8233.89
2064,8192.793
2065,8327.037
2066,8376.356
2067,8254.816
2068,8173.071
2069,8231.926
2070,8345.196
2071,8413.315
2072,8341.054
2073,8155.44
2074,8028.027
2075,8020.772
2076,8062.552
2077,8087.042
2078,8043.238
2079,7942.809
2080,7855.129
2081,7825.993
2082,7875.917
2083,7981.779
2084,8084.625
2085,8098.37
2086,7936.587
2087,7720.372
2088,7674.934
2089,7753.74
2090,7776.344
2091,7734.065
2092,7698.641
2093,7699.254
2094,7738.538
2095,7771.471
2096,7749.774
2097,7702.549
2098,7669.562
2099,7625.912
2100,7542.012
2101,7438.119
2102,7353.468
2103,7349.973
2104,7436.909
2105,7472.474
2106,7381.103
2107,7289.214
2108,7273.579
2109,7268.291
2110,7241.146
2111,7235.56
2112,7253.728
2113,7237.694
2114,7180.12
2115,7131.142
2116,7110.478
2117,7107.961
2118,7112.296
2119,7113.309
2120,7113.608
2121,7116.768
2122,7072.343
2123,6929.37
2124,6797.846
2125,6807.611
2126,6881.917
2127,6903.463
2128,6839.111
2129,6699.273
2130,6563.594
2131,6506.486
2132,6561.138
2133,6701.631
2134,6808.83
2135,6801.316
2136,6666.537
2137,6491.913
2138,6454.572
2139,6528.458
2140,6529.137
2141,6438.269
2142,6342.028
2143,6285.738
2144,6284.753
2145,6299.766
2146,6282.271
2147,6229.364
2148,6165.242
2149,6160.005
2150,6220.428
2151,6191.351
2152,6023.356
2153,5878.329
2154,5841.017
2155,5875.268
2156,5930.27
2157,5953.14
2158,5946.944
2159,5945.362
2160,5924.659
2161,5845.543
2162,5738.933
2163,5654.802
2164,5623.075
2165,5633.781
2166,5585.299
2167,5464.012
2168,5442.341
2169,5533.517
2170,5524.687
2171,5369.788
2172,5193.46
2173,5140.881
2174,5318.557
2175,5476.525
2176,5314.294
2177,5067.049
2178,5017.666
2179,5081.163
2180,5137.154
2181,5146.518
2182,5092.427
2183,4977.212
2184,4845.366
2185,4776.244
2186,4785.327
2187,4842.77
2188,4907.414
2189,4932.29
2190,4865.841
2191,4704.22
2192,4585.058
2193,4590.417
2194,4650.885
2195,4703.315
2196,4714.722
2197,4685.922
2198,4638.648
2199,4550.417
2200,4394.962
2201,4250.667
2202,4196.052
2203,4198.44
2204,4231.391
2205,4322.427
2206,4388.607
2207,4220.35
2208,3947.498
2209,3929.191
2210,4080.647
2211,4134.094
2212,4048.625
2213,3888.276
2214,3816.328
2215,3884.604
2216,3924.224
2217,3903.847
2218,3950.243
2219,4012.937
2220,3951.093
2221,3841.014
2222,3795.421
2223,3738.193
2224,3605.438
2225,3451.696
2226,3337.573
2227,3305.654
2228,3302.632
2229,3231.202
2230,3205.441
2231,3341.459
2232,3377.358
2233,3181.118
2234,3121.475
2235,3301.006
2236,3399.537
2237,3307.145
2238,3109.046
2239,2976.649
2240,3024.412
2241,3013.224
2242,2823.028
2243,2749.968
2244,2873.464
2245,2965.615
2246,2918.042
2247,2748.615
2248,2677
2249,2836.27
2250,2861.702
2251,2598.841
2252,2396.011
2253,2345.519
2254,2281.311
2255,2272.354
2256,2427.088
2257,2477.078
2258,2283.686
2259,2213.28
2260,2347.806
2261,2374.042
2262,2288.818
2263,2265.763
2264,2254.846
2265,2170.338
2266,2039.75
2267,1926.905
2268,1913.18
2269,1981.811
2270,2049.421
2271,2085.774
2272,2081.985
2273,2029.994
2274,1956.791
2275,1931.22
2276,1843.887
2277,1525.53
2278,1369.295
2279,1700.017
2280,1931.142
2281,1754.41
2282,1538.122
2283,1456.326
2284,1477.306
2285,1506.375
2286,1462.622
2287,1370.006
2288,1314.44
2289,1421.704
2290,1554.081
2291,1469.146
2292,1366.7
2293,1432.214
2294,1455.462
2295,1314.278
2296,1071.666
2297,908.1146
2298,983.2079
2299,1107.053
2300,1118.047
