400,22668.21
401,22651.61
402,22602.78
403,22544.2
404,22501.15
405,22492.81
406,22510.47
407,22537.42
408,22557.62
409,22564.02
410,22556.52
411,22535.22
412,22505.47
413,22482.66
414,22483.29
415,22517.79
416,22564.53
417,22591.36
418,22568.3
419,22500.39
420,22422.44
421,22369.89
422,22360.82
423,22376.98
424,22395.59
425,22397.98
426,22388.13
427,22377.97
428,22378.74
429,22389.01
430,22396.23
431,22387.57
432,22356.25
433,22308.29
434,22251.33
435,22192.71
436,22138.18
437,22092.89
438,22061.66
439,22042.79
440,22029.1
441,22013.25
442,21988.98
443,21952.18
444,21899.02
445,21828.11
446,21750.89
447,21682.88
448,21638.52
449,21616.21
450,21601.71
451,21580.61
452,21545.81
453,21503.4
454,21460.89
455,21423.89
456,21389.74
457,21353.41
458,21310.25
459,21259.71
460,21204.04
461,21145.57
462,21090.82
463,21052.66
464,21044.42
465,21070.98
466,21106.38
467,21117.74
468,21076.32
469,20990.84
470,20890.54
471,20804.21
472,20743.29
473,20698.07
474,20657.61
475,20614.15
476,20568.61
477,20523.35
478,20480.6
479,20441.6
480,20407.15
481,20378.06
482,20355.12
483,20339.07
484,20330.65
485,20327.77
486,20322.75
487,20307.26
488,20275.71
489,20234.8
490,20194.76
491,20164.76
492,20142.18
493,20116.8
494,20078.55
495,20028.27
496,19981.57
497,19955.06
498,19955.39
499,19959.88
500,19940.43
501,19875.27
502,19785.27
503,19709.25
504,19683.85
505,19706.64
506,19740.36
507,19746.91
508,19708.22
509,19643.01
510,19573.85
511,19518.04
512,19471.89
513,19426.39
514,19374.04
515,19320.62
516,19279.17
517,19262.16
518,19264.67
519,19262.59
520,19231.02
521,19159.84
522,19072.34
523,18996.22
524,18952.84
525,18933.02
526,18918.33
527,18891.63
528,18849.82
529,18798.58
530,18743.72
531,18690.53
532,18643.67
533,18607.72
534,18583.39
535,18561.73
536,18532.39
537,18487.05
538,18427.99
539,18360.94
540,18291.55
541,18225.14
542,18166.74
543,18121.31
544,18091.1
545,18075.05
546,18071.85
547,18077.89
548,18083.85
549,18079.61
550,18056.69
551,18014.65
552,17955.57
553,17882.7
554,17812.12
555,17767.79
556,17772.68
557,17820.26
558,17870
559,17879.8
560,17827.95
561,17736.77
562,17634.27
563,17545.05
564,17479.68
565,17444.92
566,17445.44
567,17467.34
568,17487.13
569,17482.17
570,17447.2
571,17393.54
572,17333.1
573,17275.9
574,17228.7
575,17197.91
576,17185.21
577,17176.91
578,17156.25
579,17110.01
580,17047.51
581,16986.85
582,16944.75
583,16919.92
584,16898.13
585,16865.28
586,16818.74
587,16770.46
588,16733.2
589,16713.42
590,16703.26
591,16692.96
592,16674.56
593,16647.63
594,16613.69
595,16574.55
596,16534.2
597,16497.69
598,16469.68
599,16448.78
600,16428.48
601,16402.21
602,16366.77
603,16323.78
604,16275.25
605,16224.89
606,16180.73
607,16151.46
608,16141.87
609,16139.35
610,16126.35
611,16088.13
612,16033.15
613,15981.45
614,15952.11
615,15947.39
616,15955.24
617,15963.31
618,15963.42
619,15953.22
620,15930.82
621,15896.47
622,15855.41
623,15813.62
624,15775.54
625,15739.51
626,15702.24
627,15661.45
628,15622
629,15591.93
630,15578.3
631,15574.15
632,15562.28
633,15525.86
634,15465.95
635,15404.81
636,15365.71
637,15356.3
638,15354.22
639,15333.82
640,15280.24
641,15212.93
642,15158.05
643,15135.79
644,15134.2
645,15130.58
646,15104.7
647,15058.91
648,15007.95
649,14966.16
650,14939.95
651,14928.79
652,14931.81
653,14942.46
654,14946.49
655,14929.24
656,14886.35
657,14835.3
658,14796.23
659,14782.4
660,14783.78
661,14785.4
662,14774.31
663,14748.27
664,14708.78
665,14657.89
666,14602.92
667,14554.03
668,14520.73
669,14501.64
670,14486.4
671,14464.64
672,14433
673,14396.8
674,14361.87
675,14331.38
676,14303.44
677,14275.68
678,14246.33
679,14215.5
680,14183.64
681,14151.42
682,14120.66
683,14093.46
684,14071.31
685,14051.17
686,14028.08
687,13997.67
688,13961.89
689,13926.74
690,13898.03
691,13876.17
692,13856.53
693,13834.38
694,13806.85
695,13773.54
696,13734.28
697,13690.71
698,13648.05
699,13611.91
700,13586.43
701,13571.46
702,13566.08
703,13568.06
704,13569.52
705,13561.07
706,13535.36
707,13498.15
708,13460.34
709,13431.92
710,13413.98
711,13402.56
712,13393.6
713,13381.94
714,13361.58
715,13326.8
716,13279.86
717,13231.93
718,13194.51
719,13172.27
720,13159.45
721,13149.43
722,13138.81
723,13131.13
724,13130.81
725,13138.7
726,13144.82
727,13137.15
728,13106.83
729,13058.39
730,12999.94
731,12940.06
732,12890.39
733,12863.67
734,12869.62
735,12891.33
736,12898.06
737,12861.88
738,12791.48
739,12721.25
740,12684.51
741,12684.21
742,12694.84
743,12690.4
744,12662.15
745,12622.78
746,12586.17
747,12560.41
748,12544.09
749,12534.92
750,12529.63
751,12522.74
752,12508.5
753,12483.93
754,12453.98
755,12425.03
756,12401.73
757,12381.92
758,12361.81
759,12338.4
760,12312.8
761,12287.43
762,12264.15
763,12240.47
764,12212.1
765,12175.26
766,12131.03
767,12083.22
768,12035.7
769,11993.12
770,11960.65
771,11943.08
772,11938
773,11936.52
774,11929.76
775,11914.58
776,11894.33
777,11872.68
778,11853.13
779,11838.91
780,11833.16
781,11834.9
782,11835.78
783,11826.76
784,11802.49
785,11765.75
786,11720.38
787,11672.46
788,11634.34
789,11619.36
790,11633.27
791,11655.38
792,11659.37
793,11626.81
794,11573.42
795,11524.17
796,11499.39
797,11494.58
798,11496.82
799,11494.62
800,11485.65
801,11471.45
802,11453.26
803,11429.56
804,11397.49
805,11354.63
806,11303.5
807,11249.59
808,11198.48
809,11156.59
810,11130.89
811,11127.44
812,11135.69
813,11130.87
814,11089.12
815,11016.15
816,10947.43
817,10918.61
818,10933.62
819,10959.09
820,10960.17
821,10925.28
822,10874.81
823,10831.18
824,10804.85
825,10787.21
826,10768.07
827,10742.94
828,10717.96
829,10700.33
830,10693.21
831,10691.13
832,10687.52
833,10676.74
834,10655.41
835,10620.49
836,10573.32
837,10527.67
838,10499.39
839,10497.54
840,10508.97
841,10516.13
842,10504.93
843,10474.14
844,10425.48
845,10364.11
846,10309.74
847,10285.89
848,10307.66
849,10350.4
850,10377.59
851,10360.35
852,10310.24
853,10252.4
854,10208.71
855,10181.76
856,10166.96
857,10159.22
858,10150.28
859,10130.57
860,10092.85
861,10047.35
862,10012.25
863,10003.14
864,10014.21
865,10028.97
866,10032.24
867,10021.02
868,9998.914
869,9969.497
870,9935.414
871,9898.762
872,9862.027
873,9832.273
874,9819.429
875,9831.778
876,9857.109
877,9869.441
878,9844.973
879,9791.271
880,9738.334
881,9714.76
882,9723.177
883,9746.584
884,9768.158
885,9780.562
886,9784.021
887,9778.859
888,9763.361
889,9734.123
890,9688.351
891,9634.983
892,9593.17
893,9581.241
894,9596.413
895,9616.855
896,9621.023
897,9605.649
898,9584.49
899,9571.372
900,9568.573
901,9567.309
902,9558.697
903,9541.146
904,9520.217
905,9501.71
906,9490.683
907,9491.438
908,9507.791
909,9533.047
910,9549.855
911,9541.191
912,9507.903
913,9469.135
914,9444.126
915,9435.738
916,9429.976
917,9412.521
918,9378.883
919,9334.701
920,9285.979
921,9236.946
922,9189.996
923,9147.435
924,9111.542
925,9084.575
926,9068.505
927,9058.819
928,9044.496
929,9014.856
930,8972.747
931,8934.387
932,8915.684
933,8914.584
934,8911.662
935,8887.905
936,8846.484
937,8811.485
938,8806.335
939,8827
940,8844.333
941,8829.84
942,8782.809
943,8727.075
944,8686.315
945,8668.073
946,8666.175
947,8674.111
948,8686.564
949,8699.209
950,8707.771
951,8708.125
952,8696.272
953,8669.057
954,8635.004
955,8611.232
956,8613.271
957,8634.228
958,8651.629
959,8644.849
960,8618.053
961,8591.61
962,8583.912
963,8589.432
964,8588.032
965,8561.823
966,8516.629
967,8471.777
968,8444.706
969,8434.985
970,8432.76
971,8429.27
972,8425.151
973,8425.61
974,8434.407
975,8444.608
976,8444.518
977,8424.65
978,8390.1
979,8351.864
980,8320.49
981,8303.896
982,8309.012
983,8338.804
984,8375.173
985,8393.078
986,8374.358
987,8333.255
988,8293.578
989,8273.698
990,8269.259
991,8269.922
992,8267.199
993,8259.423
994,8246.523
995,8228.819
996,8207.925
997,8185.71
998,8163.309
999,8139.726
1000,8113.588
1001,8085.535
1002,8061.304
1003,8047.387
1004,8046.156
1005,8050.86
1006,8053.542
1007,8047.687
1008,8033.366
1009,8012.544
1010,7988.404
1011,7969.035
1012,7963.739
1013,7976.329
1014,7991.691
1015,7990.651
1016,7963.334
1017,7927.417
1018,7905.604
1019,7909.942
1020,7925.406
1021,7932.813
1022,7920.338
1023,7892.085
1024,7854.257
1025,7815.522
1026,7789.106
1027,7788.468
1028,7813.191
1029,7841.141
1030,7848.73
1031,7827.953
1032,7791.385
1033,7752.919
1034,7724.766
1035,7717.271
1036,7739.613
1037,7779.868
1038,7806.498
1039,7789.691
1040,7735.686
1041,7678.542
1042,7650.141
1043,7650.126
1044,7657.662
1045,7654.072
1046,7642.111
1047,7635.632
1048,7645.793
1049,7664.961
1050,7677.696
1051,7672.062
1052,7654.698
1053,7638.352
1054,7632.464
1055,7632.897
1056,7632.032
1057,7624.635
1058,7613.055
1059,7601.145
1060,7591.876
1061,7586.051
1062,7584.129
1063,7585.537
1064,7587.716
1065,7587.892
1066,7583.573
1067,7572.682
1068,7553.43
1069,7531.697
1070,7522.275
1071,7539.493
1072,7579.607
1073,7622.593
1074,7649.317
1075,7659.055
1076,7663.817
1077,7674.93
1078,7695.467
1079,7724.167
1080,7759.529
1081,7798.724
1082,7838.41
1083,7874.415
1084,7898.729
1085,7902.252
1086,7880.945
1087,7847.389
1088,7817.545
1089,7801.042
1090,7792.485
1091,7784.37
1092,7774.589
1093,7770.39
1094,7779.574
1095,7796.649
1096,7799.26
1097,7765.375
1098,7700.699
1099,7636.656
1100,7602.999
1101,7597.337
1102,7595.663
1103,7576.53
1104,7542.032
1105,7505.561
1106,7478.672
1107,7462.714
1108,7455.619
1109,7454.887
1110,7456.445
1111,7455.871
1112,7451.052
1113,7445.592
1114,7443.935
1115,7448.2
1116,7456.539
1117,7466.669
1118,7474.62
1119,7474.415
1120,7460.623
1121,7438.777
1122,7423.491
1123,7427.455
1124,7441.972
1125,7446.19
1126,7423.233
1127,7381.45
1128,7338.786
1129,7308.563
1130,7285.799
1131,7260.996
1132,7227.962
1133,7188.93
1134,7147.463
1135,7107.373
1136,7072.903
1137,7048.255
1138,7035.422
1139,7033.928
1140,7042.853
1141,7056.824
1142,7067.145
1143,7066.492
1144,7059.252
1145,7055.502
1146,7062.472
1147,7073.236
1148,7076.534
1149,7065.205
1150,7044.449
1151,7021.757
1152,7001.158
1153,6980.139
1154,6955.609
1155,6929.184
1156,6908.161
1157,6899.581
1158,6901.476
1159,6904.919
1160,6901.765
1161,6891.666
1162,6878.068
1163,6864.904
1164,6858.264
1165,6864.871
1166,6886.859
1167,6913.638
1168,6932.533
1169,6938.798
1170,6941.012
1171,6948.638
1172,6961.619
1173,6970.013
1174,6964.22
1175,6943.775
1176,6914.054
1177,6880.534
1178,6848.737
1179,6824.207
1180,6809.794
1181,6798.97
1182,6783.232
1183,6761.554
1184,6747.892
1185,6757.354
1186,6784.548
1187,6799.658
1188,6774.146
1189,6715.468
1190,6656.718
1191,6626.896
1192,6623.751
1193,6632.112
1194,6639.199
1195,6641.112
1196,6635.988
1197,6623.221
1198,6604.753
1199,6582.839
1200,6559.681
1201,6537.426
1202,6518.249
1203,6504.697
1204,6499.571
1205,6504.224
1206,6511.151
1207,6509.496
1208,6493.961
1209,6477.121
1210,6475.041
1211,6495.313
1212,6530.74
1213,6572.535
1214,6609.579
1215,6628.474
1216,6617.806
1217,6585.739
1218,6551.139
1219,6529.835
1220,6523.029
1221,6527.685
1222,6538.794
1223,6546.655
1224,6541.124
1225,6521.486
1226,6499.162
1227,6485.433
1228,6479.296
1229,6471.102
1230,6453.092
1231,6429.955
1232,6410.987
1233,6402.947
1234,6405.027
1235,6414.972
1236,6427.12
1237,6430.605
1238,6415.031
1239,6384.896
1240,6356.833
1241,6345.793
1242,6352.543
1243,6371.842
1244,6397.471
1245,6420.068
1246,6429.718
1247,6423.783
1248,6411.575
1249,6403.229
1250,6403.524
1251,6412.676
1252,6429.673
1253,6445.83
1254,6449.134
1255,6433.321
1256,6411.041
1257,6398.688
1258,6403.148
1259,6416.115
1260,6428.171
1261,6433.897
1262,6431.11
1263,6418.51
1264,6399.907
1265,6381.148
1266,6367.843
1267,6364.883
1268,6376.85
1269,6399.891
1270,6418.333
1271,6417.202
1272,6402.101
1273,6392.909
1274,6404.979
1275,6428.319
1276,6444.674
1277,6444.086
1278,6436.079
1279,6432.633
1280,6436.332
1281,6439.269
1282,6434.331
1283,6426.719
1284,6428.241
1285,6445.789
1286,6467.231
1287,6476.019
1288,6466.616
1289,6452.263
1290,6447.16
1291,6451.208
1292,6452.789
1293,6442.648
1294,6427.575
1295,6420.25
1296,6427.702
1297,6442.78
1298,6456.203
1299,6460.881
1300,6452.211
1301,6427.464
1302,6399.341
1303,6388.614
1304,6407.614
1305,6438.565
1306,6457.266
1307,6453.693
1308,6439.394
1309,6426.951
1310,6418.769
1311,6410.238
1312,6398.915
1313,6393.233
1314,6404.746
1315,6433.954
1316,6459.946
1317,6460.843
1318,6441.58
1319,6430.058
1320,6448.849
1321,6484.281
1322,6509.399
1323,6508.729
1324,6493.75
1325,6479.52
1326,6474.268
1327,6479.365
1328,6494.542
1329,6510.089
1330,6512.264
1331,6497.605
1332,6490.22
1333,6517.761
1334,6577.965
1335,6635.226
1336,6656.987
1337,6648.646
1338,6633.427
1339,6628.475
1340,6633.026
1341,6643.078
1342,6653.496
1343,6657.828
1344,6650.497
1345,6633.734
1346,6613.562
1347,6595.068
1348,6580.516
1349,6571.605
1350,6568.459
1351,6569.359
1352,6572.396
1353,6574.98
1354,6574.2
1355,6569.034
1356,6563.724
1357,6563.239
1358,6567.284
1359,6569.807
1360,6566.34
1361,6565.907
1362,6583.362
1363,6622.276
1364,6657.931
1365,6662.673
1366,6641.21
1367,6629.751
1368,6657.377
1369,6701.653
1370,6720.941
1371,6697.512
1372,6664.473
1373,6659.359
1374,6684.384
1375,6712.794
1376,6722.882
1377,6721.853
1378,6725.579
1379,6741.223
1380,6761.083
1381,6776.712
1382,6788.16
1383,6801.031
1384,6817.442
1385,6826.396
1386,6814.173
1387,6779.531
1388,6737.487
1389,6703.761
1390,6690.53
1391,6708.238
1392,6753.896
1393,6789.409
1394,6773.142
1395,6710.141
1396,6649.774
1397,6633.215
1398,6647.018
1399,6659.408
1400,6653.618
1401,6639.859
1402,6630.127
1403,6624.129
1404,6613.561
1405,6594.914
1406,6581.811
1407,6590.964
1408,6618.454
1409,6635.969
1410,6619.421
1411,6583.463
1412,6558.832
1413,6562.378
1414,6581.341
1415,6599.944
1416,6613.691
1417,6626.461
1418,6641.064
1419,6655.375
1420,6666.099
1421,6671.54
1422,6672.006
1423,6668.302
1424,6663.777
1425,6662.898
1426,6668.95
1427,6682.69
1428,6704.092
1429,6726.872
1430,6740.187
1431,6735.871
1432,6715.965
1433,6684.963
1434,6650.938
1435,6626.131
1436,6620.581
1437,6629.01
1438,6640.315
1439,6648.38
1440,6656.314
1441,6667.247
1442,6673.943
1443,6662.853
1444,6628.964
1445,6592.239
1446,6576.181
1447,6584.172
1448,6601.062
1449,6614.105
1450,6624.833
1451,6638.733
1452,6656.592
1453,6672.818
1454,6682.061
1455,6683.984
1456,6680.437
1457,6675.242
1458,6676.079
1459,6689.611
1460,6705.931
1461,6704.808
1462,6677.218
1463,6646.478
1464,6640.404
1465,6663.834
1466,6701.679
1467,6738.34
1468,6759.075
1469,6749.973
1470,6718.291
1471,6696.098
1472,6708.981
1473,6737.294
1474,6745.823
1475,6724.276
1476,6701.14
1477,6703.903
1478,6725.485
1479,6742.613
1480,6743.396
1481,6739.198
1482,6742.636
1483,6749.371
1484,6744.8
1485,6721.559
1486,6691.461
1487,6668.736
1488,6657.628
1489,6654.833
1490,6655.389
1491,6649.605
1492,6627.676
1493,6597.228
1494,6581.918
1495,6596.752
1496,6619.479
1497,6619.594
1498,6597.662
1499,6588.062
1500,6615.41
1501,6648.745
1502,6641.516
1503,6590.484
1504,6546.975
1505,6554.998
1506,6597.042
1507,6634.446
1508,6647.408
1509,6643.053
1510,6630.394
1511,6617.151
1512,6610.543
1513,6615.978
1514,6636.004
1515,6669.981
1516,6696.466
1517,6685.306
1518,6635.265
1519,6594.265
1520,6607.764
1521,6664.443
1522,6726.805
1523,6767.718
1524,6778.988
1525,6757.618
1526,6726.806
1527,6722.192
1528,6754.325
1529,6787.435
1530,6786.139
1531,6760.044
1532,6740.648
1533,6744.652
1534,6761.134
1535,6777.024
1536,6786.268
1537,6786.25
1538,6779.984
1539,6780.56
1540,6798.556
1541,6816.546
1542,6804.276
1543,6756.914
1544,6713.491
1545,6710.464
1546,6733.335
1547,6745.52
1548,6734.317
1549,6725.501
1550,6743.089
1551,6776.344
1552,6800.811
1553,6808.105
1554,6813.354
1555,6829.95
1556,6850.254
1557,6859.295
1558,6851.66
1559,6834.341
1560,6816.379
1561,6812.757
1562,6839.392
1563,6884.739
1564,6906.352
1565,6875.753
1566,6830.263
1567,6822.404
1568,6859.828
1569,6907.306
1570,6937.009
1571,6952.59
1572,6963.852
1573,6971.623
1574,6969.641
1575,6959.339
1576,6963.689
1577,7005.85
1578,7068.423
1579,7108.165
1580,7101.541
1581,7068.334
1582,7033.284
1583,7015.059
1584,7029.13
1585,7075.086
1586,7126.264
1587,7156.309
1588,7156.593
1589,7125.476
1590,7072.716
1591,7022.384
1592,6995.55
1593,6995.641
1594,7020.835
1595,7060.928
1596,7097.845
1597,7119.141
1598,7130.931
1599,7142.287
1600,7153.953
1601,7161.032
1602,7163.294
1603,7170.829
1604,7192.937
1605,7221.597
1606,7240.794
1607,7250.538
1608,7274.928
1609,7332.37
1610,7401.501
1611,7449.315
1612,7470.784
1613,7489.6
1614,7522.703
1615,7560.342
1616,7587.588
1617,7593.79
1618,7571.282
1619,7524.234
1620,7481.394
1621,7468.503
1622,7466.342
1623,7436.607
1624,7374.539
1625,7320.245
1626,7303.352
1627,7294.756
1628,7252.215
1629,7180.023
1630,7121.644
1631,7107.397
1632,7131.143
1633,7179.009
1634,7219.369
1635,7212.072
1636,7154.979
1637,7103.02
1638,7101.016
1639,7123.019
1640,7124.087
1641,7096.847
1642,7067.373
1643,7053.559
1644,7048.921
1645,7043.965
1646,7037.066
1647,7030.657
1648,7028.335
1649,7035.328
1650,7053.886
1651,7072.537
1652,7077.115
1653,7071.759
1654,7075.459
1655,7095.797
1656,7113.333
1657,7108.724
1658,7090.631
1659,7079.724
1660,7087.414
1661,7113.811
1662,7154.115
1663,7188.885
1664,7197.244
1665,7179.399
1666,7149.096
1667,7124
1668,7128.069
1669,7174.506
1670,7218.659
1671,7201.225
1672,7132.272
1673,7082.552
1674,7093.959
1675,7135.583
1676,7169.509
1677,7182.599
1678,7172.639
1679,7147.868
1680,7128.328
1681,7125.869
1682,7125.231
1683,7109.958
1684,7100.863
1685,7138.021
1686,7214.998
1687,7260.246
1688,7223.625
1689,7154.997
1690,7122.683
1691,7132.012
1692,7147.799
1693,7152.339
1694,7157.622
1695,7173.73
1696,7190.136
1697,7191.416
1698,7173.82
1699,7142.222
1700,7110.874
1701,7110.562
1702,7160.843
1703,7217.69
1704,7221.744
1705,7177.214
1706,7137.74
1707,7130.584
1708,7130.141
1709,7116.578
1710,7129.405
1711,7220.492
1712,7340.937
1713,7362.755
1714,7248.333
1715,7135.835
1716,7147.619
1717,7228.997
1718,7276.858
1719,7280.304
1720,7298.245
1721,7346.864
1722,7362.639
1723,7297.244
1724,7209.536
1725,7182.469
1726,7215.229
1727,7249.146
1728,7253.211
1729,7242.763
1730,7234.566
1731,7234.47
1732,7244.955
1733,7260.932
1734,7272.846
1735,7275.368
1736,7269.027
1737,7258.105
1738,7257.545
1739,7280.662
1740,7309.437
1741,7311.543
1742,7285.758
1743,7265.237
1744,7268.948
1745,7275.961
1746,7265.156
1747,7251.797
1748,7263.28
1749,7298.682
1750,7333.172
1751,7351.325
1752,7356.584
1753,7353.391
1754,7341.679
1755,7321.01
1756,7299.986
1757,7292.527
1758,7301.489
1759,7315.06
1760,7324.959
1761,7336.104
1762,7353.226
1763,7363.575
1764,7348.357
1765,7313.576
1766,7287.378
1767,7286.457
1768,7304.433
1769,7332.57
1770,7362.998
1771,7387.544
1772,7393.177
1773,7364.943
1774,7316.388
1775,7294.762
1776,7323.354
1777,7361.35
1778,7367.152
1779,7348.842
1780,7330.235
1781,7318.802
1782,7310.38
1783,7302.682
1784,7296.46
1785,7295.726
1786,7313.393
1787,7360.078
1788,7420.652
1789,7470.106
1790,7490.483
1791,7469.84
1792,7417.436
1793,7375.632
1794,7375.821
1795,7404.475
1796,7440.322
1797,7470.986
1798,7487.959
1799,7485.426
1800,7459.944
1801,7417.783
1802,7380.464
1803,7367.648
1804,7388.685
1805,7443.996
1806,7488.787
1807,7465.064
1808,7392.385
1809,7349.468
1810,7364.261
1811,7388.871
1812,7386.491
1813,7367.911
1814,7350.47
1815,7342.002
1816,7346.347
1817,7358.57
1818,7368.146
1819,7371.752
1820,7374.941
1821,7384.292
1822,7407.451
1823,7444.06
1824,7458.649
1825,7415.235
1826,7356.458
1827,7360.96
1828,7418.439
1829,7436.972
1830,7390.417
1831,7366.005
1832,7418.969
1833,7475.673
1834,7459.002
1835,7412.187
1836,7414.917
1837,7470.659
1838,7533.963
1839,7563.277
1840,7522.721
1841,7424.059
1842,7371.106
1843,7428.457
1844,7485.32
1845,7423.662
1846,7330.307
1847,7359.901
1848,7482.494
1849,7543.365
1850,7504.011
1851,7464.857
1852,7479.695
1853,7493.786
1854,7462.229
1855,7419.085
1856,7407.201
1857,7416.855
1858,7420.557
1859,7419.431
1860,7432.542
1861,7460.47
1862,7483.826
1863,7489.969
1864,7479.828
1865,7458.65
1866,7440.284
1867,7436.919
1868,7444.172
1869,7452.599
1870,7454.33
1871,7443.115
1872,7426.721
1873,7424.459
1874,7443.33
1875,7473.324
1876,7497.793
1877,7488.54
1878,7429.948
1879,7355.857
1880,7306.094
1881,7291.572
1882,7311.881
1883,7357.485
1884,7412.979
1885,7452.325
1886,7440.954
1887,7384.667
1888,7344.753
1889,7355.361
1890,7384.741
1891,7402.62
1892,7411.67
1893,7418.939
1894,7418.456
1895,7402.13
1896,7380.875
1897,7374.105
1898,7382.173
1899,7390.657
1900,7384.813
1901,7350.332
1902,7300.635
1903,7295.742
1904,7356.796
1905,7395.34
1906,7341.053
1907,7259.472
1908,7232.835
1909,7248.167
1910,7262.518
1911,7277.31
1912,7315.693
1913,7366.755
1914,7393.871
1915,7388.168
1916,7372.158
1917,7358.736
1918,7343.134
1919,7328.957
1920,7342.063
1921,7391.215
1922,7419.648
1923,7376.074
1924,7299.146
1925,7246.533
1926,7221.849
1927,7208.134
1928,7213.333
1929,7257.547
1930,7316.267
1931,7330.346
1932,7298.141
1933,7282.397
1934,7300.033
1935,7293.83
1936,7244.079
1937,7220.835
1938,7265.333
1939,7306.327
1940,7278.168
1941,7214.142
1942,7164.549
1943,7141.216
1944,7143.348
1945,7171.547
1946,7224.408
1947,7272.851
1948,7274.269
1949,7234.165
1950,7194.583
1951,7166.386
1952,7128.774
1953,7099.077
1954,7145.299
1955,7263.4
1956,7322.96
1957,7264.66
1958,7209.376
1959,7236.445
1960,7242.979
1961,7144.753
1962,7040.088
1963,7038.801
1964,7109.781
1965,7189.288
1966,7266.161
1967,7342.718
1968,7373.283
1969,7299.421
1970,7165.067
1971,7069.24
1972,7041.263
1973,7059.102
1974,7090.355
1975,7095.835
1976,7071.655
1977,7051.309
1978,7048.808
1979,7050.692
1980,7037.986
1981,6986.374
1982,6908.98
1983,6888.62
1984,6965.682
1985,7070.133
1986,7130.477
1987,7110.725
1988,7007.744
1989,6903.661
1990,6882.232
1991,6969.764
1992,7145.671
1993,7241.296
1994,7107.928
1995,6916.993
1996,6894.533
1997,6960.579
1998,6946.668
1999,6881.872
2000,6866.79
2001,6877.477
2002,6840.437
2003,6807.207
2004,6884.972
2005,7004.983
2006,6999.368
2007,6879.853
2008,6782.248
2009,6765.482
2010,6822.413
2011,6886.786
2012,6848.746
2013,6734.818
2014,6698.086
2015,6760.009
2016,6802.017
2017,6781.365
2018,6748.112
2019,6737.238
2020,6758.383
2021,6788.911
2022,6767.206
2023,6691.719
2024,6647.447
2025,6649.487
2026,6600.729
2027,6492.771
2028,6469.778
2029,6585.056
2030,6719.77
2031,6782.314
2032,6756.76
2033,6670.406
2034,6614.299
2035,6631.012
2036,6660.452
2037,6648.123
2038,6572.114
2039,6452.201
2040,6382.093
2041,6404.122
2042,6441.294
2043,6437.136
2044,6405.161
2045,6375.309
2046,6393.342
2047,6456.125
2048,6458.313
2049,6373.483
2050,6357.983
2051,6465.706
2052,6504.116
2053,6374.394
2054,6217.602
2055,6148.483
2056,6177.674
2057,6254.439
2058,6237.349
2059,6106.224
2060,6073.989
2061,6203.04
2062,6256.627
2063,6147.456
2064,6081.195
2065,6141.507
2066,6179.921
2067,6141.859
2068,6139.679
2069,6187.573
2070,6147.857
2071,6029.296
2072,6040.068
2073,6173.371
2074,6153.781
2075,5965.322
2076,5893.206
2077,5995.45
2078,6082.474
2079,6070.741
2080,5990.321
2081,5902.749
2082,5887.863
2083,5945.419
2084,6011.99
2085,6029.364
2086,5951.737
2087,5819.157
2088,5720.413
2089,5688.442
2090,5720.39
2091,5780.997
2092,5820.107
2093,5795.956
2094,5693.402
2095,5637.749
2096,5749.981
2097,5850.221
2098,5742.668
2099,5596.696
2100,5602.884
2101,5650.536
2102,5608.528
2103,5504.93
2104,5405.825
2105,5394.454
2106,5488.083
2107,5551.708
2108,5520.538
2109,5497.871
2110,5526.684
2111,5528.268
2112,5454.168
2113,5312.146
2114,5193.443
2115,5263.95
2116,5471.066
2117,5576.716
2118,5531.848
2119,5427.284
2120,5309.636
2121,5198.645
2122,5126.281
2123,5120.882
2124,5149.531
2125,5164.123
2126,5158.035
2127,5129.632
2128,5048.819
2129,4923.032
2130,4888.058
2131,4998.399
2132,5073.297
2133,5026.486
2134,4993.063
2135,5021.415
2136,5012.789
2137,4945.79
2138,4891.559
2139,4891.16
2140,4948.782
2141,4975.979
2142,4855.198
2143,4709.658
2144,4724.14
2145,4754.875
2146,4622.08
2147,4502.977
2148,4560.819
2149,4620.607
2150,4565.415
2151,4556.503
2152,4666.07
2153,4755.774
2154,4750.605
2155,4679.391
2156,4588.017
2157,4529.236
2158,4519.976
2159,4546.568
2160,4544.108
2161,4453.824
2162,4387.744
2163,4450.109
2164,4490.694
2165,4390.035
2166,4269.778
2167,4205.721
2168,4118.14
2169,3996.926
2170,3940.684
2171,3963.486
2172,3998.167
2173,4024.881
2174,4053.174
2175,4066.785
2176,4048.761
2177,4036.419
2178,4050.74
2179,4008.366
2180,3891.606
2181,3863.748
2182,3938.148
2183,3889.346
2184,3737.531
2185,3737.546
2186,3829.772
2187,3777.086
2188,3633.101
2189,3540.074
2190,3446.67
2191,3309.689
2192,3269.506
2193,3372.418
2194,3431.208
2195,3396.744
2196,3412.691
2197,3492.124
2198,3543.203
2199,3566.156
2200,3588.372
2201,3516.65
2202,3305.354
2203,3189.467
2204,3286.905
2205,3371.873
2206,3305.756
2207,3120.188
2208,2978.263
2209,3092.212
2210,3260.461
2211,3176.769
2212,3058.864
2213,3132.703
2214,3182.52
2215,3065.72
2216,2905.386
2217,2801.153
2218,2791.92
2219,2837.662
2220,2854.49
2221,2803.83
2222,2698.441
2223,2671.236
2224,2765.376
2225,2779.21
2226,2667.937
2227,2614.288
2228,2638.905
2229,2640.666
2230,2618.092
2231,2607.545
2232,2611.167
2233,2606.695
2234,2538.882
2235,2442.69
2236,2460.618
2237,2497.16
2238,2329.335
2239,2172.333
2240,2284.34
2241,2346.906
2242,2171.21
2243,2115.246
2244,2243.763
2245,2228.026
2246,2145.238
2247,2274.167
2248,2366.611
2249,2163.558
2250,1985.526
2251,2011.557
2252,2003.193
2253,1906.464
2254,1862.254
2255,1874.615
2256,1882.336
2257,1865.55
2258,1833.127
2259,1830.846
2260,1850.051
2261,1819.37
2262,1765.476
2263,1755.202
2264,1711.645
2265,1593.286
2266,1583.807
2267,1711.296
2268,1745.373
2269,1651.748
2270,1544.75
2271,1451.286
2272,1366.784
2273,1299.201
2274,1289.57
2275,1412.379
2276,1533.151
2277,1416.511
2278,1277.846
2279,1353.278
2280,1377.885
2281,1246.786
2282,1227.03
2283,1317.977
2284,1320.979
2285,1257.434
2286,1212.867
2287,1205.906
2288,1214.43
2289,1181.762
2290,1123.55
2291,1091.667
2292,1050.437
2293,1003.789
2294,1114.988
2295,1265.249
2296,1040.798
2297,679.6498
2298,661.357
2299,850.0986
2300,1012.811
