400,7269.268
401,7289.422
402,7289.636
403,7278.573
404,7266.542
405,7260.936
406,7255.801
407,7241.337
408,7208.804
409,7164.648
410,7126.993
411,7114.079
412,7132.467
413,7166.174
414,7196.716
415,7209.194
416,7207.421
417,7201.389
418,7200.609
419,7206.949
420,7215.795
421,7222.361
422,7224.16
423,7223.501
424,7223.287
425,7225.811
426,7229.953
427,7233.396
428,7233.894
429,7230.341
430,7222.643
431,7210.735
432,7195.153
433,7177.703
434,7160.342
435,7144.744
436,7131.004
437,7118.669
438,7107.243
439,7095.498
440,7081.573
441,7063.616
442,7041.907
443,7021.066
444,7006.217
445,7001.282
446,7003.987
447,7010.049
448,7015.256
449,7016.153
450,7009.887
451,6993.668
452,6967.832
453,6938.391
454,6911.933
455,6893.835
456,6884.129
457,6881.336
458,6883.743
459,6886.597
460,6883.089
461,6866.515
462,6836.457
463,6802.111
464,6773.439
465,6757.694
466,6752.346
467,6752.649
468,6753.902
469,6751.613
470,6741.417
471,6719.127
472,6685.913
473,6649.459
474,6617.802
475,6596.703
476,6585.712
477,6583.315
478,6587.851
479,6596.596
480,6606.4
481,6614.072
482,6615.357
483,6605.032
484,6577.917
485,6535.847
486,6494.579
487,6471.43
488,6478.149
489,6501.049
490,6519.182
491,6513.537
492,6486.68
493,6455.091
494,6435.174
495,6433.286
496,6442.129
497,6453.457
498,6461.007
499,6464.331
500,6464.053
501,6460.268
502,6449.366
503,6426.184
504,6386.167
505,6335.932
506,6292.047
507,6271.227
508,6278.296
509,6296.21
510,6305.654
511,6292.562
512,6263.8
513,6231.479
514,6206.656
515,6191.007
516,6181.077
517,6173.405
518,6165.384
519,6155.352
520,6141.711
521,6124.452
522,6107.141
523,6093.815
524,6086.957
525,6081.491
526,6070.066
527,6046.429
528,6016.41
529,5993.456
530,5990.668
531,6007.059
532,6024.151
533,6022.502
534,5992.791
535,5950.729
536,5915.781
537,5903.274
538,5907.237
539,5914.75
540,5913.728
541,5901.3
542,5880.65
543,5855.081
544,5829
545,5808.202
546,5798.53
547,5802.042
548,5811.545
549,5818.49
550,5816.229
551,5807.511
552,5798.026
553,5792.909
554,5791.552
555,5789.811
556,5783.569
557,5770.555
558,5750.613
559,5723.721
560,5692.496
561,5665.296
562,5651.191
563,5655.748
564,5669.631
565,5679.548
566,5673.605
567,5651.728
568,5619.99
569,5584.584
570,5553.647
571,5537.187
572,5545.084
573,5575.139
574,5604.183
575,5607.065
576,5569.424
577,5511.997
578,5462.586
579,5444.454
580,5452.51
581,5470.528
582,5483.041
583,5484.16
584,5474.871
585,5456.357
586,5431.692
587,5406.348
588,5385.916
589,5374.089
590,5370.311
591,5373.441
592,5381.14
593,5385.983
594,5379.241
595,5353.946
596,5317.048
597,5282.199
598,5262.352
599,5258.941
600,5263.694
601,5268.157
602,5267.623
603,5262.77
604,5254.692
605,5244.573
606,5233.82
607,5223.878
608,5216.072
609,5211.254
610,5210.135
611,5212.899
612,5215.27
613,5210.745
614,5193.305
615,5165.191
616,5135.646
617,5113.975
618,5104.151
619,5102.639
620,5105.349
621,5109.109
622,5112.881
623,5115.944
624,5117.183
625,5113.827
626,5102.688
627,5081.426
628,5053.853
629,5026.515
630,5005.565
631,4991.795
632,4982.055
633,4973.182
634,4964.252
635,4957
636,4953.28
637,4952.622
638,4950.067
639,4940.169
640,4920.244
641,4896.375
642,4876.375
643,4866.336
644,4863.217
645,4860.915
646,4854.026
647,4843.581
648,4834.136
649,4829.916
650,4828.779
651,4823.077
652,4805.216
653,4776.185
654,4748.552
655,4735.596
656,4742.764
657,4758.944
658,4770.969
659,4769.307
660,4756.669
661,4738.367
662,4719.185
663,4701.137
664,4685.27
665,4672.48
666,4662.318
667,4653.605
668,4645.224
669,4637.134
670,4630.186
671,4625.208
672,4621.466
673,4616.289
674,4606.92
675,4593.428
676,4581.169
677,4576.053
678,4580.204
679,4584.878
680,4579.433
681,4556.955
682,4527.15
683,4504.344
684,4500.471
685,4510.973
686,4524.211
687,4529.175
688,4521.76
689,4502.295
690,4471.491
691,4436.461
692,4410.292
693,4405.918
694,4422.676
695,4441.564
696,4442.467
697,4417.342
698,4381.761
699,4353.958
700,4345.796
701,4350.872
702,4359.53
703,4363.366
704,4359.208
705,4345.308
706,4321.063
707,4293.276
708,4271.664
709,4264.665
710,4268.41
711,4272.025
712,4265.379
713,4250.645
714,4239.862
715,4244.814
716,4263.957
717,4280.892
718,4278.728
719,4252.736
720,4216.96
721,4186.958
722,4172.543
723,4171.227
724,4178.931
725,4191.124
726,4201.844
727,4204.886
728,4196.104
729,4180.152
730,4164.042
731,4153.664
732,4148.24
733,4144.458
734,4139.295
735,4132.135
736,4123.616
737,4114.29
738,4103.416
739,4089.347
740,4070.658
741,4050.77
742,4037.646
743,4039.113
744,4053.289
745,4066.241
746,4063.493
747,4040.853
748,4011.001
749,3988.098
750,3981.074
751,3987.519
752,4003.534
753,4023.713
754,4038.194
755,4036.353
756,4012.31
757,3978.646
758,3952.408
759,3946.743
760,3954.66
761,3962.614
762,3959.219
763,3947.961
764,3938.707
765,3939.83
766,3945.524
767,3942.108
768,3917.27
769,3877.288
770,3841.636
771,3829.014
772,3839.612
773,3856.999
774,3864.552
775,3855.058
776,3831.907
777,3799.105
778,3763.65
779,3736.783
780,3729.916
781,3745.952
782,3772.796
783,3796.899
784,3809.565
785,3812.757
786,3809.853
787,3803.177
788,3792.151
789,3775.698
790,3754.313
791,3733.951
792,3721.731
793,3722.397
794,3730.429
795,3737.53
796,3736.775
797,3728.562
798,3715.76
799,3701.195
800,3687.405
801,3676.809
802,3671.144
803,3666.459
804,3655.932
805,3633.796
806,3605.571
807,3583.627
808,3579.368
809,3590.338
810,3604.042
811,3608.281
812,3599.136
813,3579.777
814,3553.637
815,3525.308
816,3500.549
817,3484.996
818,3479.732
819,3480.476
820,3482.693
821,3483.493
822,3482.242
823,3478.477
824,3471.887
825,3462.411
826,3450.022
827,3436.42
828,3426.489
829,3425.415
830,3434.17
831,3444.744
832,3448.015
833,3439.752
834,3427.726
835,3421.485
836,3425.441
837,3429.492
838,3421.024
839,3394.141
840,3364.713
841,3352.964
842,3370.921
843,3400.292
844,3415.81
845,3399.679
846,3365.438
847,3334.866
848,3324.502
849,3326.118
850,3324.108
851,3306.436
852,3280.122
853,3258.563
854,3253.016
855,3261.994
856,3279.243
857,3298.469
858,3312.979
859,3315.938
860,3302.029
861,3277.247
862,3252.737
863,3238.287
864,3232.421
865,3228.041
866,3219.018
867,3208.363
868,3204.041
869,3212.799
870,3228.707
871,3238.415
872,3229.823
873,3205.375
874,3176.662
875,3154.681
876,3141.824
877,3134.695
878,3130
879,3127.084
880,3127.187
881,3131.373
882,3137.68
883,3141.857
884,3139.836
885,3131.105
886,3117.988
887,3102.932
888,3089.368
889,3081.542
890,3083.369
891,3092.54
892,3101.336
893,3102.285
894,3095.601
895,3088.434
896,3087.829
897,3094.133
898,3101.443
899,3103.829
900,3099.434
901,3090.306
902,3078.707
903,3068.309
904,3064.17
905,3071.067
906,3086.36
907,3099.99
908,3101.961
909,3090.455
910,3071.952
911,3053.163
912,3038.034
913,3027.674
914,3022.983
915,3023.082
916,3025.256
917,3026.706
918,3024.442
919,3015.276
920,2996.252
921,2969.993
922,2944.856
923,2929.144
924,2924.371
925,2925.133
926,2925.861
927,2923.847
928,2919.269
929,2912.42
930,2903.43
931,2892.266
932,2878.888
933,2863.261
934,2845.36
935,2825.342
936,2807.265
937,2798.862
938,2807.436
939,2829.491
940,2851.651
941,2860.782
942,2854.239
943,2838.649
944,2820.831
945,2805.8
946,2797.032
947,2797.67
948,2806.306
949,2817.834
950,2827.211
951,2831.642
952,2830.084
953,2821.711
954,2808.033
955,2792.277
956,2777.673
957,2767.112
958,2763.242
959,2768.08
960,2776.286
961,2777.72
962,2763.575
963,2740.084
964,2722.677
965,2724.913
966,2741.039
967,2754.304
968,2750.06
969,2733.2
970,2718.926
971,2720.4
972,2733.764
973,2746.893
974,2749.175
975,2741.282
976,2728.915
977,2717.401
978,2709.561
979,2707.192
980,2711.406
981,2719.275
982,2726.396
983,2728.985
984,2726.492
985,2719.447
986,2708.848
987,2697.953
988,2690.68
989,2689.403
990,2690.006
991,2686.679
992,2675.767
993,2661.637
994,2650.516
995,2646.096
996,2643.77
997,2637.246
998,2623.466
999,2608.707
1000,2600.892
1001,2603.848
1002,2611.031
1003,2614.322
1004,2609.166
1005,2598.906
1006,2587.934
1007,2579.661
1008,2573.016
1009,2565.637
1010,2556.22
1011,2547.672
1012,2543.946
1013,2547.021
1014,2552.06
1015,2552.768
1016,2545.459
1017,2534.178
1018,2524.387
1019,2520.132
1020,2521.877
1021,2529.511
1022,2540.787
1023,2548.799
1024,2546.111
1025,2531.176
1026,2513.312
1027,2502.879
1028,2503.787
1029,2509.861
1030,2514.155
1031,2513.585
1032,2510.167
1033,2506.216
1034,2502.814
1035,2499.675
1036,2496.426
1037,2492.499
1038,2487.133
1039,2479.695
1040,2471.522
1041,2465.47
1042,2464.098
1043,2466.206
1044,2468.208
1045,2466.935
1046,2463.149
1047,2459.644
1048,2458.817
1049,2460.271
1050,2462.443
1051,2464.225
1052,2466.902
1053,2472.549
1054,2481.909
1055,2490.255
1056,2491.464
1057,2482.473
1058,2469.987
1059,2462.629
1060,2464.952
1061,2471.465
1062,2475.186
1063,2471.683
1064,2461.416
1065,2445.456
1066,2428.069
1067,2418.295
1068,2425.193
1069,2446.854
1070,2468.617
1071,2475.891
1072,2468.663
1073,2460.04
1074,2462.419
1075,2473.308
1076,2479.906
1077,2471.26
1078,2454.545
1079,2446.446
1080,2460.564
1081,2490.512
1082,2522.085
1083,2543.627
1084,2555.152
1085,2560.009
1086,2561.087
1087,2559.763
1088,2557.1
1089,2554.119
1090,2551.74
1091,2550.845
1092,2550.935
1093,2549.105
1094,2542.281
1095,2529.709
1096,2513.58
1097,2496.191
1098,2478.245
1099,2458.962
1100,2437.89
1101,2419.298
1102,2410.628
1103,2417.869
1104,2434.986
1105,2450.169
1106,2453.779
1107,2447.962
1108,2438.803
1109,2431.162
1110,2425.442
1111,2421.034
1112,2417.605
1113,2415.501
1114,2415.17
1115,2416.866
1116,2420.511
1117,2425.962
1118,2432.107
1119,2436.678
1120,2437.408
1121,2433.113
1122,2423.509
1123,2408.708
1124,2392.474
1125,2380.644
1126,2377.502
1127,2377.654
1128,2372.029
1129,2354.664
1130,2331.914
1131,2313.158
1132,2303.197
1133,2295.149
1134,2280.404
1135,2258.25
1136,2241.233
1137,2242.707
1138,2263.225
1139,2289.013
1140,2306.222
1141,2310.494
1142,2304.546
1143,2291.377
1144,2274.936
1145,2259.63
1146,2249.537
1147,2247.104
1148,2254.272
1149,2269.954
1150,2283.908
1151,2284.253
1152,2267.226
1153,2244.398
1154,2228.788
1155,2225.179
1156,2228.416
1157,2232.943
1158,2236.094
1159,2237.438
1160,2236.843
1161,2236.137
1162,2238.11
1163,2244.5
1164,2252.111
1165,2256.295
1166,2254.054
1167,2246.966
1168,2237.407
1169,2228.612
1170,2225.253
1171,2231.789
1172,2243.951
1173,2248.414
1174,2233.129
1175,2205.516
1176,2185.429
1177,2188.919
1178,2207.358
1179,2222.721
1180,2221.608
1181,2206.748
1182,2184.381
1183,2161.702
1184,2147.824
1185,2151.735
1186,2171.031
1187,2189.74
1188,2192.289
1189,2178.968
1190,2161.365
1191,2149.776
1192,2144.163
1193,2140.217
1194,2134.649
1195,2127.955
1196,2121.492
1197,2116.622
1198,2114.709
1199,2117.05
1200,2122.747
1201,2128.342
1202,2130.496
1203,2129.169
1204,2126.551
1205,2124.487
1206,2122.437
1207,2118.963
1208,2113.27
1209,2106.637
1210,2100.763
1211,2097.564
1212,2099.33
1213,2108.202
1214,2122.093
1215,2134.772
1216,2140.434
1217,2138.961
1218,2133.34
1219,2126.453
1220,2120.533
1221,2117.626
1222,2118.778
1223,2122.65
1224,2127.541
1225,2131.278
1226,2131.078
1227,2124.322
1228,2111.089
1229,2093.358
1230,2073.723
1231,2058.24
1232,2054.244
1233,2065.28
1234,2083.661
1235,2099.691
1236,2107.229
1237,2105.567
1238,2094.746
1239,2079.552
1240,2068.63
1241,2069.247
1242,2078.26
1243,2088.122
1244,2093.128
1245,2093.708
1246,2091.546
1247,2088.01
1248,2083.949
1249,2080.211
1250,2078.532
1251,2081.408
1252,2090.166
1253,2097.691
1254,2093.202
1255,2071.629
1256,2046.69
1257,2035.792
1258,2045.113
1259,2062.889
1260,2076.257
1261,2080.655
1262,2078.236
1263,2071.449
1264,2063.393
1265,2057.43
1266,2055.878
1267,2057.993
1268,2062.479
1269,2068.375
1270,2075.191
1271,2082.353
1272,2087.838
1273,2088.614
1274,2082.784
1275,2074.53
1276,2070.01
1277,2072.576
1278,2078.982
1279,2085.068
1280,2087.614
1281,2084.442
1282,2074.165
1283,2062.094
1284,2057.134
1285,2064.854
1286,2077.937
1287,2086.059
1288,2084.844
1289,2080.059
1290,2078.11
1291,2079.596
1292,2080.443
1293,2077.32
1294,2072.153
1295,2068.801
1296,2070.069
1297,2076.125
1298,2086.615
1299,2097.997
1300,2103.094
1301,2095.654
1302,2079.403
1303,2063.284
1304,2054.879
1305,2056.758
1306,2070.31
1307,2092.122
1308,2111.487
1309,2117.939
1310,2112.149
1311,2102.465
1312,2095.902
1313,2092.421
1314,2089.911
1315,2087.311
1316,2085.589
1317,2085.789
1318,2086.158
1319,2082.55
1320,2072.737
1321,2066.347
1322,2077.332
1323,2108.545
1324,2136.847
1325,2136.505
1326,2108.772
1327,2081.998
1328,2081.354
1329,2101.003
1330,2121.831
1331,2130.906
1332,2132.037
1333,2131.677
1334,2132.529
1335,2133.116
1336,2132.106
1337,2131.012
1338,2132.68
1339,2138.865
1340,2148.127
1341,2158.382
1342,2165.309
1343,2161.967
1344,2142.965
1345,2116.726
1346,2098.389
1347,2097.14
1348,2104.596
1349,2109.457
1350,2109.348
1351,2112.272
1352,2125.102
1353,2141.082
1354,2147.021
1355,2136.146
1356,2119.699
1357,2111.689
1358,2115.963
1359,2125.25
1360,2132.417
1361,2135.494
1362,2134.742
1363,2132.391
1364,2135.545
1365,2151.538
1366,2175.877
1367,2192.559
1368,2188.454
1369,2170.944
1370,2155.078
1371,2149.863
1372,2151.435
1373,2154.525
1374,2157.894
1375,2163.605
1376,2173.198
1377,2185.167
1378,2197.072
1379,2205.97
1380,2208.055
1381,2200.074
1382,2186.36
1383,2176.208
1384,2176.202
1385,2182.636
1386,2189.495
1387,2192.909
1388,2191.811
1389,2185.945
1390,2180.107
1391,2181.555
1392,2192.249
1393,2200.232
1394,2191.885
1395,2166.585
1396,2136.045
1397,2111.544
1398,2099.175
1399,2103.228
1400,2121.243
1401,2138.682
1402,2141.227
1403,2132.474
1404,2127.71
1405,2135.872
1406,2143.139
1407,2131.373
1408,2102.844
1409,2083.949
1410,2096.989
1411,2126.488
1412,2141.312
1413,2128.36
1414,2112.9
1415,2122.868
1416,2153.624
1417,2176.307
1418,2170.382
1419,2150.031
1420,2137.495
1421,2140.794
1422,2149.936
1423,2155.201
1424,2157.263
1425,2161.281
1426,2169.371
1427,2177.093
1428,2179.476
1429,2175.951
1430,2169.151
1431,2162.085
1432,2158.848
1433,2163.539
1434,2172.44
1435,2172.737
1436,2154.681
1437,2130.923
1438,2122.596
1439,2137.328
1440,2157.904
1441,2165.962
1442,2160.005
1443,2148.773
1444,2140.89
1445,2144.125
1446,2165.321
1447,2195.333
1448,2210.304
1449,2193.099
1450,2159.989
1451,2136.453
1452,2133.325
1453,2141.557
1454,2151.877
1455,2163.622
1456,2179.804
1457,2198.434
1458,2207.666
1459,2196.195
1460,2171.954
1461,2154.881
1462,2157.729
1463,2172.244
1464,2186.768
1465,2195.504
1466,2197.734
1467,2193.66
1468,2186.542
1469,2180.339
1470,2176.447
1471,2173.244
1472,2169.679
1473,2168.896
1474,2175.448
1475,2189.086
1476,2202.105
1477,2207.11
1478,2204.34
1479,2197.633
1480,2191.537
1481,2191.964
1482,2203.728
1483,2217.94
1484,2217.41
1485,2193.953
1486,2163.057
1487,2143.229
1488,2140.998
1489,2153.853
1490,2177.031
1491,2199.215
1492,2208.212
1493,2201.691
1494,2186.387
1495,2168.824
1496,2153.25
1497,2143.327
1498,2141.686
1499,2149.842
1500,2166.864
1501,2180.342
1502,2174.817
1503,2150.738
1504,2128.581
1505,2125.918
1506,2136.442
1507,2145.621
1508,2145.469
1509,2137.34
1510,2124.134
1511,2113.987
1512,2116.954
1513,2132.356
1514,2142.627
1515,2132.543
1516,2114.454
1517,2112.469
1518,2134.147
1519,2158.842
1520,2166.273
1521,2160.508
1522,2156.808
1523,2162.916
1524,2172.988
1525,2180.442
1526,2184.283
1527,2186.188
1528,2186.878
1529,2185.268
1530,2180.261
1531,2172.269
1532,2162.465
1533,2154.451
1534,2156.27
1535,2174.182
1536,2195.945
1537,2200.474
1538,2181.119
1539,2157.387
1540,2149.06
1541,2156.223
1542,2169.737
1543,2178.966
1544,2170.828
1545,2135.516
1546,2088.93
1547,2058.118
1548,2056.296
1549,2074.381
1550,2102.152
1551,2135.251
1552,2171.584
1553,2204.821
1554,2222.47
1555,2215.588
1556,2198.826
1557,2194.85
1558,2206.897
1559,2213.019
1560,2196.258
1561,2173.213
1562,2170.164
1563,2190.24
1564,2210.507
1565,2213.015
1566,2206.746
1567,2207.298
1568,2220.687
1569,2243.781
1570,2271.208
1571,2291.277
1572,2292.048
1573,2279.533
1574,2273.946
1575,2285.823
1576,2298.112
1577,2291.212
1578,2270.566
1579,2257.577
1580,2264.054
1581,2280.613
1582,2295.762
1583,2303.669
1584,2301.37
1585,2289.957
1586,2277.208
1587,2270.604
1588,2271.754
1589,2279.946
1590,2290.588
1591,2294.221
1592,2285.004
1593,2274.513
1594,2278.411
1595,2297.017
1596,2316.254
1597,2325.929
1598,2329.736
1599,2333.441
1600,2334.903
1601,2326.629
1602,2308.331
1603,2295.528
1604,2303.501
1605,2328.747
1606,2358.838
1607,2384.299
1608,2400.199
1609,2403.619
1610,2400.144
1611,2397.939
1612,2401.228
1613,2410.183
1614,2423.967
1615,2439.027
1616,2451.547
1617,2461.545
1618,2471.653
1619,2480.767
1620,2479.879
1621,2461.786
1622,2439.784
1623,2435.675
1624,2447.309
1625,2440.55
1626,2392.167
1627,2335.578
1628,2316.815
1629,2335.751
1630,2353.411
1631,2346.71
1632,2335.849
1633,2343.811
1634,2358.935
1635,2352.122
1636,2316.52
1637,2278.843
1638,2262.028
1639,2257.717
1640,2249.198
1641,2236.892
1642,2236.477
1643,2257.118
1644,2289.638
1645,2322.249
1646,2346.324
1647,2354.96
1648,2347.713
1649,2333.492
1650,2320.384
1651,2309.494
1652,2299.985
1653,2290.583
1654,2279.667
1655,2268.576
1656,2265.399
1657,2277.533
1658,2300.484
1659,2324.563
1660,2340.963
1661,2341.982
1662,2325.128
1663,2305.795
1664,2301.552
1665,2309.599
1666,2314.221
1667,2309.977
1668,2309.485
1669,2322.072
1670,2331.211
1671,2313.839
1672,2277.801
1673,2257.97
1674,2273.535
1675,2304.608
1676,2327.729
1677,2334.167
1678,2321.739
1679,2296.113
1680,2271.831
1681,2261.633
1682,2271.135
1683,2302.831
1684,2342.683
1685,2367.908
1686,2368.081
1687,2350.156
1688,2324.637
1689,2310.394
1690,2325.326
1691,2352.007
1692,2350.547
1693,2312.14
1694,2279.305
1695,2287.206
1696,2316.96
1697,2336.688
1698,2342.314
1699,2349.966
1700,2367.005
1701,2384.069
1702,2391.582
1703,2387.652
1704,2372.898
1705,2350.652
1706,2326.375
1707,2305.336
1708,2292.305
1709,2291.355
1710,2303.243
1711,2327.12
1712,2353.492
1713,2366.083
1714,2358.281
1715,2342.193
1716,2330.375
1717,2327.07
1718,2333.755
1719,2348.607
1720,2367.273
1721,2384.239
1722,2392.056
1723,2385.794
1724,2372.975
1725,2363.879
1726,2358.572
1727,2350.101
1728,2337.342
1729,2328.74
1730,2331.155
1731,2341.721
1732,2355.163
1733,2366.121
1734,2369.242
1735,2362.188
1736,2346.741
1737,2328.573
1738,2324.804
1739,2350.749
1740,2387.52
1741,2400.528
1742,2387.058
1743,2379.619
1744,2394.981
1745,2406.07
1746,2386.271
1747,2353.159
1748,2339.577
1749,2353.444
1750,2381.521
1751,2408.378
1752,2415.851
1753,2392.459
1754,2357.016
1755,2334.617
1756,2329.119
1757,2331.545
1758,2342.51
1759,2375.471
1760,2430.279
1761,2464.902
1762,2440.275
1763,2390.061
1764,2375.406
1765,2399.89
1766,2415.654
1767,2399.225
1768,2376.458
1769,2372.188
1770,2383.91
1771,2401.775
1772,2414.254
1773,2409.322
1774,2390.937
1775,2381.953
1776,2391.534
1777,2392.315
1778,2361.711
1779,2334.007
1780,2358.249
1781,2420.043
1782,2460.408
1783,2456.45
1784,2438.303
1785,2431.286
1786,2434.237
1787,2440.251
1788,2436.804
1789,2410.661
1790,2373.624
1791,2357.314
1792,2372.031
1793,2393.547
1794,2401.611
1795,2398.65
1796,2391.711
1797,2388.294
1798,2395.008
1799,2400.078
1800,2377
1801,2329.523
1802,2309.964
1803,2350.664
1804,2407.37
1805,2429.174
1806,2420.858
1807,2408.171
1808,2395.003
1809,2368.657
1810,2335.669
1811,2331.022
1812,2370.027
1813,2407.012
1814,2398.534
1815,2373.184
1816,2379.949
1817,2410.82
1818,2420.868
1819,2393.535
1820,2347.455
1821,2308.156
1822,2311.696
1823,2377.956
1824,2450.498
1825,2461.954
1826,2430.434
1827,2415.653
1828,2431.347
1829,2448.607
1830,2452.51
1831,2453.817
1832,2461.751
1833,2473.599
1834,2482.816
1835,2473.826
1836,2431.071
1837,2376.845
1838,2356.569
1839,2379.64
1840,2414.805
1841,2438.474
1842,2446.236
1843,2438.861
1844,2427.584
1845,2423.467
1846,2421.259
1847,2410.836
1848,2403.391
1849,2423.838
1850,2462.344
1851,2468.284
1852,2426.115
1853,2394.643
1854,2417.813
1855,2457.059
1856,2464.851
1857,2449.947
1858,2440.268
1859,2434.596
1860,2413.742
1861,2384.623
1862,2382.016
1863,2412.034
1864,2428.276
1865,2401.655
1866,2369.591
1867,2371.832
1868,2398.108
1869,2423.725
1870,2436.192
1871,2429.787
1872,2405.465
1873,2370.102
1874,2343.661
1875,2363.13
1876,2430.724
1877,2471.84
1878,2435.265
1879,2386.811
1880,2400.871
1881,2451.498
1882,2481.16
1883,2480.096
1884,2465.958
1885,2453.583
1886,2454.555
1887,2460.484
1888,2435.995
1889,2374.616
1890,2334.992
1891,2356.411
1892,2386.025
1893,2369.541
1894,2347.354
1895,2379.758
1896,2427.088
1897,2405.959
1898,2347.173
1899,2365.903
1900,2459.889
1901,2491.495
1902,2411.298
1903,2331.258
1904,2330.541
1905,2365.864
1906,2387.375
1907,2393.463
1908,2393.212
1909,2390.542
1910,2387.233
1911,2382.548
1912,2374.528
1913,2363.223
1914,2350.291
1915,2338.339
1916,2331.027
1917,2335.142
1918,2362.199
1919,2407.289
1920,2427.696
1921,2399.899
1922,2379.792
1923,2417.8
1924,2461.241
1925,2440.791
1926,2385.125
1927,2358.438
1928,2359.993
1929,2352.613
1930,2336.729
1931,2342.811
1932,2369.023
1933,2377.056
1934,2356.342
1935,2341.024
1936,2346.988
1937,2344.908
1938,2317.411
1939,2296.521
1940,2308.955
1941,2326.921
1942,2318.718
1943,2303.247
1944,2312.265
1945,2346.744
1946,2392.24
1947,2418.64
1948,2390.335
1949,2331.715
1950,2311.74
1951,2339.203
1952,2361.461
1953,2359.508
1954,2361.699
1955,2381.104
1956,2399.768
1957,2407.406
1958,2416.761
1959,2430.844
1960,2417.081
1961,2356.229
1962,2299.782
1963,2298.896
1964,2327.493
1965,2341.963
1966,2329.889
1967,2293.648
1968,2260.271
1969,2263.47
1970,2285.756
1971,2283.394
1972,2264.982
1973,2274.801
1974,2313.989
1975,2345.851
1976,2355.135
1977,2350.671
1978,2335.69
1979,2305.003
1980,2268.822
1981,2261.664
1982,2292.862
1983,2321.456
1984,2319.143
1985,2297.669
1986,2273.268
1987,2259.827
1988,2267.473
1989,2295.574
1990,2332.965
1991,2337.099
1992,2277.063
1993,2206.36
1994,2187.005
1995,2202.683
1996,2216.847
1997,2225.344
1998,2234.759
1999,2240.874
2000,2237.388
2001,2240.205
2002,2271.479
2003,2305.804
2004,2296.412
2005,2260.822
2006,2252.893
2007,2262.564
2008,2238.164
2009,2194.963
2010,2198.141
2011,2245.401
2012,2275.941
2013,2261.365
2014,2207.467
2015,2152.478
2016,2164.203
2017,2228.101
2018,2237.335
2019,2169.319
2020,2109.576
2021,2108.33
2022,2160.071
2023,2223.432
2024,2213.661
2025,2126.814
2026,2082.867
2027,2128.936
2028,2182.042
2029,2190.518
2030,2173.498
2031,2156.84
2032,2166.223
2033,2200.65
2034,2211.461
2035,2181.272
2036,2159.943
2037,2172.579
2038,2182.945
2039,2165.647
2040,2130.137
2041,2090.54
2042,2062.205
2043,2057.632
2044,2083.053
2045,2120.977
2046,2107.871
2047,2029.807
2048,1984.108
2049,2015.623
2050,2036.91
2051,2004.782
2052,1995.228
2053,2042.911
2054,2074.537
2055,2049.064
2056,2010.863
2057,1996.889
2058,2012.256
2059,2044.26
2060,2054.92
2061,2040.925
2062,2062.469
2063,2124.279
2064,2130.711
2065,2065.597
2066,2050.01
2067,2106.007
2068,2093.728
2069,1987.765
2070,1937.906
2071,1991.467
2072,2046.428
2073,2049.116
2074,2016.994
2075,1970.744
2076,1930.135
2077,1921.34
2078,1973.773
2079,2044.683
2080,2029.743
2081,1955.523
2082,1955.078
2083,2017.499
2084,2024.349
2085,1971.326
2086,1931.214
2087,1909.543
2088,1873.659
2089,1844.934
2090,1863.785
2091,1871.978
2092,1788.315
2093,1720.422
2094,1814.261
2095,1944.805
2096,1931.542
2097,1841.359
2098,1797.23
2099,1812.904
2100,1866.977
2101,1919.701
2102,1935.863
2103,1908.509
2104,1847.365
2105,1791.575
2106,1770.175
2107,1778.811
2108,1805.207
2109,1830.751
2110,1838.425
2111,1815.35
2112,1769.092
2113,1732.938
2114,1729.778
2115,1767.669
2116,1822.317
2117,1844.093
2118,1825.129
2119,1788.882
2120,1757.651
2121,1748.529
2122,1745.363
2123,1723.146
2124,1702.234
2125,1711.272
2126,1733.749
2127,1745.329
2128,1743.972
2129,1733.855
2130,1721.99
2131,1709.237
2132,1681.683
2133,1649.175
2134,1665.414
2135,1718.37
2136,1703.696
2137,1624.399
2138,1598.701
2139,1626.84
2140,1614.789
2141,1567.736
2142,1547.568
2143,1545.282
2144,1524.658
2145,1494.911
2146,1479.118
2147,1488.611
2148,1513.84
2149,1490.609
2150,1412.137
2151,1423.883
2152,1556.966
2153,1621.015
2154,1567.609
2155,1543.494
2156,1572.694
2157,1563.613
2158,1519.306
2159,1502.13
2160,1515.931
2161,1531.683
2162,1499.077
2163,1398.095
2164,1351.932
2165,1427.261
2166,1452.466
2167,1358.02
2168,1331.021
2169,1413.706
2170,1430.565
2171,1363.918
2172,1343.494
2173,1349.894
2174,1287.078
2175,1240.197
2176,1328.061
2177,1432.73
2178,1424.897
2179,1368.827
2180,1327.49
2181,1279.258
2182,1219.071
2183,1180.997
2184,1190.119
2185,1253.055
2186,1296.163
2187,1220.765
2188,1134.686
2189,1179.645
2190,1230.012
2191,1173.071
2192,1155.021
2193,1240.619
2194,1259.392
2195,1179.921
2196,1162.687
2197,1200.586
2198,1159.018
2199,1060.636
2200,1001.335
2201,1016.499
2202,1099.36
2203,1172.567
2204,1183.868
2205,1158.781
2206,1097.266
2207,963.3267
2208,849.7465
2209,920.8004
2210,1045.474
2211,1011.866
2212,954.0319
2213,1016.449
2214,1066.257
2215,1015.622
2216,941.5811
2217,897.8337
2218,894.1431
2219,930.733
2220,995.6942
2221,1030.416
2222,983.7576
2223,900.9322
2224,844.3777
2225,863.945
2226,938.7796
2227,967.603
2228,955.0653
2229,975.8755
2230,993.8782
2231,950.4905
2232,901.5928
2233,893.0998
2234,883.7586
2235,852.8545
2236,822.4743
2237,820.9603
2238,865.5815
2239,875.1436
2240,780.3093
2241,721.6094
2242,778.6528
2243,802.906
2244,734.6221
2245,651.9382
2246,626.986
2247,698.1661
2248,757.6334
2249,709.8429
2250,665.7263
2251,683.7866
2252,671.8561
2253,633.0502
2254,659.5162
2255,722.2439
2256,742.9995
2257,710.2708
2258,657.5604
2259,674.4164
2260,740.8031
2261,711.5576
2262,617.8789
2263,585.0603
2264,596.3902
2265,608.2812
2266,636.0176
2267,657.0679
2268,590.5785
2269,481.3199
2270,451.9214
2271,497.6012
2272,572.4299
2273,657.9424
2274,703.4924
2275,614.2546
2276,495.1426
2277,558.7631
2278,655.5353
2279,591.4572
2280,492.7185
2281,474.1948
2282,533.2143
2283,565.8675
2284,447.1057
2285,365.6332
2286,480.9058
2287,524.3232
2288,400.3432
2289,343.492
2290,363.3546
2291,334.6581
2292,347.0423
2293,462.7017
2294,503.1868
2295,417.5375
2296,341.772
2297,356.1019
2298,455.2443
2299,436.9099
2300,246.6791
