400,30411.95
401,30338.9
402,30273.33
403,30228.47
404,30218.3
405,30249.45
406,30294.79
407,30317.51
408,30283.66
409,30199.43
410,30101.96
411,30028.84
412,30000.5
413,30004.31
414,30023.91
415,30045.13
416,30065
417,30084.33
418,30103.55
419,30116.96
420,30113.67
421,30082.74
422,30024.82
423,29964.78
424,29930.45
425,29942.98
426,29986.22
427,30030.9
428,30049.1
429,30035.15
430,30003.03
431,29967.22
432,29934.01
433,29892.19
434,29828.36
435,29736.26
436,29649.64
437,29616.2
438,29679.55
439,29814.06
440,29934.81
441,29955.77
442,29842.92
443,29667.81
444,29514.43
445,29449.16
446,29447.71
447,29456.37
448,29424.7
449,29349.31
450,29263.85
451,29202.58
452,29181.89
453,29185.68
454,29194.51
455,29190.88
456,29165.89
457,29113.05
458,29027.69
459,28926.96
460,28842.86
461,28807.01
462,28822.56
463,28849.14
464,28842.9
465,28774.85
466,28669.63
467,28564.05
468,28490.73
469,28444.41
470,28399.11
471,28329.47
472,28234.84
473,28144.66
474,28089.95
475,28085.96
476,28104.36
477,28109.5
478,28072.13
479,28005.34
480,27939.65
481,27904.15
482,27901.15
483,27908.52
484,27903.38
485,27871.05
486,27813.11
487,27732.98
488,27636.85
489,27543.59
490,27475.67
491,27453.22
492,27470.23
493,27503.87
494,27531.28
495,27537.01
496,27515.66
497,27462.57
498,27379.93
499,27290.28
500,27219.81
501,27189.55
502,27185.26
503,27177.86
504,27139.89
505,27072.66
506,27003.16
507,26958.99
508,26949.49
509,26950.54
510,26934.5
511,26882.55
512,26811.07
513,26745.17
514,26706.82
515,26688.83
516,26668.14
517,26622.36
518,26548.66
519,26465.91
520,26393.98
521,26342.16
522,26296.09
523,26238.21
524,26156.21
525,26063.09
526,25979.51
527,25923.96
528,25891.52
529,25862.46
530,25817.33
531,25750.21
532,25671.97
533,25594.47
534,25526.84
535,25471.58
536,25430.11
537,25401.88
538,25375.84
539,25337.53
540,25274.22
541,25192.77
542,25112.9
543,25054.07
544,25021.58
545,25002.96
546,24984.7
547,24957.94
548,24925.3
549,24891.07
550,24857.94
551,24820.55
552,24771.04
553,24703.2
554,24628.62
555,24569.8
556,24548.53
557,24563
558,24584.28
559,24582.15
560,24540.39
561,24473.03
562,24398
563,24329.73
564,24268.05
565,24208.85
566,24148.67
567,24089.61
568,24036.65
569,23994.54
570,23963.06
571,23937.28
572,23912.08
573,23883.39
574,23848.88
575,23806.4
576,23756.99
577,23712.17
578,23685.54
579,23686.77
580,23700.78
581,23702.81
582,23669.84
583,23601.49
584,23513.57
585,23422.15
586,23341.8
587,23285.31
588,23265.22
589,23281
590,23302.63
591,23296.14
592,23238.24
593,23149.88
594,23063.58
595,23007.56
596,22976.51
597,22948.94
598,22904.45
599,22840.83
600,22771.2
601,22708.96
602,22660.31
603,22621.16
604,22586.6
605,22552.58
606,22517.09
607,22478.45
608,22436.13
609,22394.9
610,22361.03
611,22339.59
612,22325.81
613,22309.97
614,22282.88
615,22244.12
616,22200.79
617,22160.05
618,22125.29
619,22094.43
620,22065.05
621,22035.85
622,22008.25
623,21984.05
624,21963.66
625,21941.65
626,21911.14
627,21867.02
628,21817.37
629,21776.11
630,21755.95
631,21752.85
632,21750.49
633,21732.58
634,21692.38
635,21634.43
636,21563.9
637,21487.71
638,21416.15
639,21359.85
640,21324.32
641,21298.9
642,21269.7
643,21226.01
644,21174.04
645,21125.65
646,21091.53
647,21071.43
648,21059.12
649,21048.43
650,21035.23
651,21017.17
652,20992
653,20959.74
654,20923.49
655,20886.54
656,20849.53
657,20807.48
658,20754.76
659,20689.72
660,20624.4
661,20573.67
662,20548.29
663,20536.38
664,20518.28
665,20476.86
666,20417.68
667,20358.62
668,20316.67
669,20293.78
670,20279.41
671,20262.92
672,20240.89
673,20218.88
674,20202.93
675,20192.77
676,20176.44
677,20140.69
678,20077.77
679,19995.52
680,19904.54
681,19815.73
682,19741.6
683,19695.05
684,19685.56
685,19698.76
686,19710.06
687,19697.04
688,19661.52
689,19620.85
690,19591.78
691,19575.29
692,19557.66
693,19524.91
694,19473.67
695,19414.86
696,19360.28
697,19313.05
698,19259.29
699,19183.18
700,19082.71
701,18995.53
702,18966.28
703,19021.72
704,19112.31
705,19168.13
706,19132.24
707,19029.78
708,18918.34
709,18850.49
710,18830.65
711,18835.83
712,18843.39
713,18839.94
714,18819.52
715,18776.86
716,18719.66
717,18670.07
718,18650.55
719,18663.27
720,18679.03
721,18666.21
722,18609.43
723,18528.27
724,18446.76
725,18382.55
726,18334.06
727,18296.08
728,18263.36
729,18230.3
730,18191.22
731,18142.09
732,18088.8
733,18040.98
734,18007.21
735,17987.05
736,17975.37
737,17966.74
738,17952.11
739,17919.92
740,17859.6
741,17781.49
742,17715.54
743,17691.51
744,17710.95
745,17740.45
746,17744.83
747,17708.46
748,17647.67
749,17581.74
750,17525.49
751,17484.27
752,17462.16
753,17459.03
754,17462.56
755,17458.28
756,17436.28
757,17404.32
758,17374.49
759,17355.58
760,17339.56
761,17312.9
762,17265.16
763,17207.54
764,17160.46
765,17141.65
766,17143.26
767,17143.24
768,17120.95
769,17075.07
770,17018.04
771,16962.36
772,16917.77
773,16891.49
774,16890.12
775,16905.83
776,16914.49
777,16891.64
778,16832.87
779,16762.07
780,16704.99
781,16673.04
782,16652.39
783,16626.7
784,16588.07
785,16547.17
786,16517.05
787,16505.07
788,16502.77
789,16499.03
790,16484.97
791,16459.51
792,16423.22
793,16378.34
794,16334.32
795,16302.54
796,16290.87
797,16288.44
798,16277.99
799,16245.74
800,16200.99
801,16162.65
802,16146.98
803,16148.44
804,16150.43
805,16137.48
806,16106.49
807,16061.85
808,16008.39
809,15955.78
810,15917.13
811,15904.34
812,15906.43
813,15892.87
814,15834.27
815,15739.77
816,15657.28
817,15634.72
818,15672.87
819,15716.92
820,15710.08
821,15638.76
822,15548.64
823,15489.08
824,15480.37
825,15496.62
826,15508
827,15497.03
828,15468.93
829,15431.36
830,15391.83
831,15357.59
832,15335.83
833,15328.22
834,15322.84
835,15305.8
836,15268.62
837,15218.02
838,15163.38
839,15112.64
840,15069.16
841,15035.34
842,15012.03
843,14994.26
844,14975.74
845,14951.57
846,14922.63
847,14891.38
848,14860.1
849,14830.56
850,14804.33
851,14782.86
852,14767.01
853,14757.43
854,14754.08
855,14752.88
856,14748.22
857,14734.96
858,14710.83
859,14674.81
860,14627.27
861,14579.04
862,14545.76
863,14539.83
864,14547
865,14539.73
866,14494.32
867,14422.65
868,14355.9
869,14322.44
870,14321.11
871,14333.43
872,14341.61
873,14336.99
874,14316.69
875,14278.73
876,14231.36
877,14189.64
878,14167.61
879,14164.26
880,14167.87
881,14167.24
882,14161.87
883,14159.35
884,14166.73
885,14179.5
886,14184
887,14167.32
888,14132.75
889,14097.11
890,14076.84
891,14074.95
892,14082.76
893,14091.29
894,14092.22
895,14077.81
896,14041.16
897,13990.47
898,13948.09
899,13935.66
900,13949.51
901,13961.77
902,13944.75
903,13895.3
904,13834.31
905,13783.07
906,13750.21
907,13731.69
908,13722.85
909,13716.37
910,13702.25
911,13670.89
912,13624.61
913,13577.92
914,13545.34
915,13529.73
916,13521.86
917,13512.28
918,13497.18
919,13478.68
920,13458.98
921,13436.55
922,13406.05
923,13362.36
924,13309.65
925,13261.52
926,13231.43
927,13220.21
928,13216.01
929,13206.78
930,13187.63
931,13160.7
932,13128.51
933,13094.97
934,13065.37
935,13044.73
936,13032.22
937,13021.46
938,13006.12
939,12984.96
940,12961.35
941,12938.81
942,12920.49
943,12909.24
944,12907.5
945,12911.45
946,12911.91
947,12900.11
948,12875.54
949,12844.51
950,12813.39
951,12787.52
952,12771.36
953,12768.73
954,12774.55
955,12777.16
956,12765.8
957,12742.42
958,12717.79
959,12701.87
960,12692.94
961,12681.67
962,12659.93
963,12633.5
964,12616.69
965,12621.68
966,12638.64
967,12645.24
968,12622
969,12575.66
970,12526.78
971,12494.1
972,12480.8
973,12482.53
974,12494.37
975,12507.56
976,12511.62
977,12497.4
978,12464.16
979,12414.59
980,12353.13
981,12294.49
982,12257.16
983,12254.3
984,12271.12
985,12283.54
986,12272.17
987,12239.29
988,12193.66
989,12145.55
990,12111.8
991,12110.91
992,12151.37
993,12204.29
994,12232.14
995,12210.45
996,12157.45
997,12100.06
998,12058.06
999,12030.59
1000,12013.13
1001,12001.84
1002,11994.61
1003,11989.6
1004,11984.75
1005,11977.5
1006,11965.22
1007,11946.36
1008,11924.24
1009,11903.62
1010,11887.76
1011,11874.11
1012,11858.65
1013,11839.07
1014,11818.84
1015,11802.71
1016,11793.62
1017,11789.22
1018,11786.18
1019,11782.29
1020,11778.11
1021,11774.63
1022,11772.33
1023,11770.51
1024,11768.36
1025,11766.09
1026,11765.82
1027,11769.81
1028,11777.1
1029,11781.61
1030,11776.98
1031,11761.88
1032,11741.64
1033,11721.92
1034,11705.28
1035,11690.77
1036,11677.38
1037,11666.13
1038,11659.93
1039,11661.26
1040,11665.64
1041,11663.18
1042,11645.31
1043,11619.78
1044,11604.68
1045,11615.25
1046,11640.53
1047,11655.97
1048,11641.35
1049,11605.97
1050,11571.46
1051,11555.87
1052,11558.41
1053,11572.05
1054,11590.22
1055,11608.08
1056,11621.26
1057,11625.29
1058,11615.49
1059,11587.13
1060,11543.33
1061,11506.62
1062,11502.25
1063,11535.6
1064,11573.86
1065,11580.46
1066,11544.97
1067,11496.03
1068,11464.78
1069,11462.81
1070,11479.07
1071,11501.55
1072,11524.85
1073,11549.44
1074,11576.09
1075,11606.22
1076,11641.67
1077,11684.09
1078,11733.06
1079,11787.13
1080,11844.75
1081,11904.06
1082,11963.11
1083,12019.95
1084,12072.84
1085,12120.08
1086,12159.63
1087,12188.34
1088,12202.85
1089,12202.72
1090,12194.45
1091,12185.46
1092,12177.47
1093,12162.36
1094,12131.23
1095,12083.01
1096,12026.54
1097,11971.13
1098,11922.89
1099,11884.98
1100,11859.45
1101,11836.41
1102,11797.91
1103,11729.72
1104,11648.66
1105,11586.4
1106,11567.59
1107,11578.67
1108,11593.32
1109,11593.37
1110,11590.22
1111,11601.96
1112,11633.85
1113,11659.45
1114,11647.88
1115,11596.48
1116,11550.76
1117,11559.4
1118,11623.39
1119,11686.93
1120,11694.23
1121,11643.31
1122,11576.82
1123,11534.46
1124,11514.84
1125,11493.17
1126,11449.14
1127,11391.52
1128,11340.16
1129,11308.54
1130,11285.09
1131,11252.04
1132,11198.35
1133,11130.04
1134,11055.83
1135,10984
1136,10922.1
1137,10877.43
1138,10852.26
1139,10843.22
1140,10846.52
1141,10856.62
1142,10866.64
1143,10870.47
1144,10868.14
1145,10862.7
1146,10856.15
1147,10845.36
1148,10825.6
1149,10796.14
1150,10768.26
1151,10755.38
1152,10759.7
1153,10762.17
1154,10741.96
1155,10696.79
1156,10646.76
1157,10612.24
1158,10597.56
1159,10594.66
1160,10595.12
1161,10590.17
1162,10570.85
1163,10532.23
1164,10488.45
1165,10459.22
1166,10455.07
1167,10461.08
1168,10458.1
1169,10436.86
1170,10404.71
1171,10370.51
1172,10341.11
1173,10321.27
1174,10315
1175,10318.93
1176,10324.95
1177,10325.99
1178,10321.84
1179,10314.91
1180,10306.91
1181,10297.15
1182,10284.44
1183,10268.27
1184,10249.47
1185,10229.09
1186,10208.8
1187,10191.11
1188,10178.38
1189,10171.15
1190,10168.58
1191,10169.61
1192,10171.72
1193,10171.8
1194,10167.82
1195,10161.61
1196,10155.9
1197,10153.04
1198,10154.59
1199,10161.78
1200,10168.21
1201,10158.59
1202,10119.92
1203,10074.41
1204,10068.05
1205,10134.36
1206,10227.71
1207,10272.52
1208,10222.92
1209,10128.62
1210,10058.05
1211,10042.89
1212,10050.64
1213,10043.91
1214,10020.65
1215,10013.43
1216,10050.96
1217,10111.69
1218,10146.58
1219,10120.02
1220,10060.03
1221,10013.02
1222,10007.78
1223,10031.13
1224,10063.87
1225,10091.79
1226,10107.09
1227,10103.14
1228,10083.46
1229,10058.7
1230,10038.86
1231,10029.19
1232,10033.19
1233,10050.46
1234,10069.14
1235,10075.44
1236,10066.4
1237,10055.64
1238,10057.32
1239,10070.96
1240,10084.21
1241,10086.06
1242,10077.27
1243,10063.62
1244,10050.9
1245,10045.06
1246,10051.92
1247,10069.15
1248,10081.01
1249,10071.79
1250,10048.66
1251,10038.32
1252,10062.9
1253,10107.42
1254,10140.82
1255,10142.68
1256,10127.78
1257,10117.93
1258,10123
1259,10133.79
1260,10139.81
1261,10137.97
1262,10131.09
1263,10121.62
1264,10108.37
1265,10088.68
1266,10064.48
1267,10050.99
1268,10065.46
1269,10104.66
1270,10136.7
1271,10130.54
1272,10093.96
1273,10061.71
1274,10061.05
1275,10076.99
1276,10080.77
1277,10057.67
1278,10025.88
1279,10007.87
1280,10012.46
1281,10033.26
1282,10062.99
1283,10093.22
1284,10114.98
1285,10121.5
1286,10114.67
1287,10098.45
1288,10079.52
1289,10069.21
1290,10078.35
1291,10102.22
1292,10123.61
1293,10128.53
1294,10124.25
1295,10125.9
1296,10142.31
1297,10166.66
1298,10189.71
1299,10203.83
1300,10203.2
1301,10184.13
1302,10160.93
1303,10157.34
1304,10186.8
1305,10225.99
1306,10243.84
1307,10230.86
1308,10210.34
1309,10206.64
1310,10222.23
1311,10244.42
1312,10262.09
1313,10272.91
1314,10277.15
1315,10278.01
1316,10284.36
1317,10305.03
1318,10335.99
1319,10362.25
1320,10370.89
1321,10363.8
1322,10348.29
1323,10332.19
1324,10324.52
1325,10334.04
1326,10359.21
1327,10388.14
1328,10409.56
1329,10419.82
1330,10418.54
1331,10408.85
1332,10403.2
1333,10415.11
1334,10444.19
1335,10474.48
1336,10491.33
1337,10496.55
1338,10499.69
1339,10506.59
1340,10512.32
1341,10510.13
1342,10498.37
1343,10481.31
1344,10463.86
1345,10453.45
1346,10458.69
1347,10480.37
1348,10496.41
1349,10481.4
1350,10436.73
1351,10394.96
1352,10385.96
1353,10404.12
1354,10427.04
1355,10439.03
1356,10443.45
1357,10446.89
1358,10454.04
1359,10467.49
1360,10489.14
1361,10516.54
1362,10545.36
1363,10572.36
1364,10597.11
1365,10619.58
1366,10639.49
1367,10656.26
1368,10670.13
1369,10686.2
1370,10711.4
1371,10746
1372,10776.25
1373,10787.69
1374,10784.15
1375,10784.5
1376,10803.46
1377,10833.42
1378,10860.06
1379,10875.56
1380,10883.28
1381,10887.21
1382,10886.24
1383,10875.97
1384,10852.95
1385,10817.72
1386,10771.9
1387,10726.42
1388,10704.24
1389,10723.93
1390,10761.15
1391,10770.63
1392,10729.75
1393,10675.6
1394,10653.01
1395,10665.3
1396,10676.37
1397,10656.24
1398,10616.92
1399,10584.58
1400,10573.89
1401,10578.93
1402,10591.5
1403,10602.34
1404,10601.46
1405,10585.21
1406,10571.93
1407,10583.95
1408,10618.33
1409,10642.19
1410,10627.14
1411,10587.54
1412,10555.52
1413,10550.49
1414,10564.72
1415,10587.35
1416,10612.49
1417,10637.89
1418,10659.69
1419,10667.29
1420,10648.96
1421,10610.42
1422,10579.48
1423,10580.49
1424,10602.27
1425,10618.29
1426,10613.84
1427,10599.73
1428,10589.57
1429,10590.27
1430,10603.9
1431,10630.04
1432,10659.59
1433,10681.59
1434,10689.97
1435,10684.36
1436,10665.99
1437,10644.16
1438,10631.26
1439,10633.79
1440,10647.49
1441,10666.84
1442,10685.73
1443,10697.6
1444,10698.72
1445,10693.49
1446,10687.65
1447,10684.68
1448,10685.94
1449,10693.71
1450,10714.71
1451,10756.52
1452,10809.12
1453,10838.63
1454,10817.18
1455,10772.08
1456,10754.32
1457,10785.81
1458,10831.04
1459,10851.16
1460,10846.63
1461,10842.4
1462,10855.05
1463,10876.19
1464,10893.56
1465,10904.33
1466,10913.86
1467,10926.12
1468,10938.19
1469,10945.55
1470,10948.05
1471,10950.64
1472,10958.17
1473,10973.13
1474,10997.02
1475,11022.31
1476,11027.41
1477,10994.32
1478,10943.02
1479,10911.28
1480,10917.9
1481,10942.97
1482,10963.04
1483,10967.31
1484,10952.63
1485,10922.3
1486,10896.06
1487,10894.41
1488,10909.75
1489,10913.25
1490,10886.68
1491,10848.21
1492,10822.64
1493,10817.39
1494,10823.98
1495,10834.89
1496,10848.98
1497,10866.63
1498,10886.21
1499,10903.93
1500,10916.53
1501,10923.78
1502,10926.51
1503,10929.46
1504,10942.25
1505,10971.1
1506,11001.11
1507,11010.2
1508,10989.98
1509,10951.52
1510,10909.19
1511,10888.46
1512,10918.7
1513,10995.21
1514,11059.67
1515,11059.31
1516,11015.44
1517,10981.13
1518,10979.6
1519,10982.99
1520,10963.99
1521,10938.09
1522,10940.41
1523,10984.74
1524,11046.45
1525,11098.88
1526,11131.59
1527,11141.98
1528,11133.3
1529,11119.42
1530,11113.68
1531,11115.22
1532,11116.29
1533,11115.84
1534,11125.28
1535,11154.99
1536,11195.93
1537,11229.71
1538,11245.69
1539,11247.37
1540,11240.48
1541,11236.41
1542,11249.1
1543,11280.36
1544,11311.06
1545,11322.9
1546,11318.58
1547,11310.06
1548,11307.35
1549,11317.23
1550,11343.7
1551,11374.08
1552,11389.25
1553,11385.77
1554,11383.04
1555,11398.24
1556,11424.92
1557,11448.08
1558,11453.34
1559,11427.1
1560,11364.89
1561,11307.51
1562,11307.97
1563,11361.62
1564,11398.9
1565,11370.26
1566,11325.05
1567,11335.61
1568,11409.85
1569,11494.12
1570,11545.47
1571,11566.48
1572,11569.32
1573,11564.26
1574,11560.13
1575,11564.28
1576,11580.24
1577,11609.7
1578,11640.89
1579,11653.47
1580,11641.7
1581,11631.42
1582,11648.47
1583,11683.5
1584,11709.73
1585,11710.65
1586,11687.17
1587,11647.12
1588,11630.81
1589,11689.08
1590,11805.21
1591,11877.43
1592,11831.71
1593,11741.52
1594,11716.93
1595,11780.85
1596,11874.41
1597,11947.05
1598,11984.35
1599,11980.94
1600,11958.18
1601,11955.52
1602,11989.92
1603,12028.68
1604,12038.03
1605,12027.75
1606,12028.07
1607,12045.74
1608,12052.13
1609,12023.63
1610,11977.67
1611,11944.32
1612,11940.59
1613,11970.08
1614,12025.2
1615,12063.68
1616,12041.42
1617,11982.68
1618,11958.46
1619,11997.85
1620,12040.21
1621,12025.16
1622,11977.41
1623,11958.16
1624,11982.98
1625,12006.32
1626,11989.77
1627,11944.57
1628,11895.17
1629,11864.79
1630,11875.55
1631,11932.08
1632,11994.9
1633,12022.84
1634,12020.49
1635,12015.74
1636,12023.14
1637,12036.94
1638,12050.45
1639,12060.49
1640,12064.84
1641,12060.24
1642,12042.46
1643,12011.47
1644,11978.26
1645,11954.93
1646,11947.74
1647,11959.93
1648,11990.02
1649,12029.76
1650,12068.36
1651,12086.21
1652,12063.67
1653,12020.49
1654,12008.43
1655,12048.66
1656,12090.5
1657,12083.33
1658,12049.89
1659,12043.76
1660,12074.15
1661,12096.34
1662,12081.37
1663,12066.58
1664,12098.41
1665,12160.79
1666,12198.08
1667,12189.09
1668,12173.25
1669,12185.17
1670,12204.21
1671,12194.48
1672,12161.17
1673,12145.4
1674,12168.47
1675,12202.17
1676,12215.9
1677,12212.92
1678,12210.37
1679,12208.87
1680,12190.19
1681,12151.87
1682,12142.65
1683,12211.13
1684,12312.65
1685,12353.32
1686,12310.37
1687,12260.93
1688,12267.23
1689,12306.27
1690,12337.52
1691,12351.77
1692,12359.96
1693,12364.74
1694,12354.7
1695,12321.62
1696,12277.38
1697,12239.64
1698,12228.55
1699,12265.81
1700,12346.19
1701,12415.71
1702,12427.77
1703,12397.77
1704,12359.22
1705,12334.17
1706,12335.56
1707,12360.92
1708,12378.85
1709,12365.35
1710,12350.42
1711,12377.57
1712,12433.33
1713,12459.45
1714,12432.5
1715,12397.52
1716,12397.68
1717,12428.29
1718,12469.97
1719,12504.63
1720,12515.31
1721,12499.96
1722,12483.12
1723,12485.2
1724,12494.79
1725,12492.5
1726,12472.72
1727,12439.58
1728,12408.54
1729,12412.77
1730,12470.31
1731,12533.13
1732,12542.9
1733,12505.88
1734,12466.64
1735,12445.98
1736,12431.51
1737,12412.93
1738,12394.3
1739,12382.96
1740,12389.53
1741,12425.62
1742,12485.42
1743,12543.85
1744,12579.57
1745,12583.16
1746,12551.94
1747,12513.49
1748,12505.15
1749,12534.65
1750,12584.57
1751,12631.99
1752,12645.47
1753,12605.24
1754,12546.22
1755,12514.51
1756,12516.06
1757,12532.44
1758,12558.14
1759,12605.16
1760,12669.08
1761,12694.77
1762,12632.3
1763,12530.9
1764,12477.95
1765,12494.63
1766,12542.76
1767,12588.04
1768,12607.64
1769,12593.52
1770,12594.41
1771,12662.97
1772,12741.17
1773,12711.08
1774,12582.23
1775,12515.62
1776,12595.54
1777,12694.7
1778,12685.35
1779,12614.89
1780,12584
1781,12605.12
1782,12628.16
1783,12626.61
1784,12609.71
1785,12591.5
1786,12591.87
1787,12623.58
1788,12645.58
1789,12600.81
1790,12520.86
1791,12507.6
1792,12591.33
1793,12686.37
1794,12722.86
1795,12715.12
1796,12691.96
1797,12665.68
1798,12641.42
1799,12619.8
1800,12597.94
1801,12584.08
1802,12604.21
1803,12666.93
1804,12721.28
1805,12716.15
1806,12677.07
1807,12657.83
1808,12672.48
1809,12704.18
1810,12734.91
1811,12746.09
1812,12730.88
1813,12715.04
1814,12724.41
1815,12753.15
1816,12784.26
1817,12799.36
1818,12779.86
1819,12731.18
1820,12687.73
1821,12672.11
1822,12676.48
1823,12689.78
1824,12705.04
1825,12715.9
1826,12712.17
1827,12683.21
1828,12649.33
1829,12658.89
1830,12720.03
1831,12772.92
1832,12770.91
1833,12726.75
1834,12666.8
1835,12630.87
1836,12657.45
1837,12712
1838,12715.54
1839,12659.77
1840,12616.12
1841,12627.07
1842,12670.52
1843,12715.81
1844,12728.64
1845,12683.58
1846,12618.86
1847,12594.93
1848,12628.86
1849,12706.51
1850,12781.92
1851,12773.16
1852,12666.81
1853,12589.71
1854,12636.07
1855,12728.25
1856,12766.74
1857,12749.32
1858,12710.42
1859,12675.25
1860,12662.46
1861,12674.02
1862,12694.18
1863,12708.12
1864,12704.11
1865,12675.14
1866,12627.11
1867,12572.2
1868,12542.18
1869,12568.79
1870,12627.5
1871,12665.87
1872,12662.03
1873,12620.57
1874,12566.62
1875,12551.48
1876,12598.47
1877,12667.15
1878,12716.42
1879,12732.23
1880,12710.83
1881,12674.3
1882,12651.67
1883,12647.32
1884,12651.14
1885,12647.34
1886,12615.98
1887,12571.12
1888,12573.19
1889,12640.83
1890,12697.26
1891,12684.16
1892,12645.17
1893,12634.61
1894,12650.26
1895,12671.35
1896,12678.61
1897,12654.8
1898,12602.52
1899,12539.97
1900,12494.32
1901,12501.99
1902,12557.81
1903,12585.77
1904,12538.86
1905,12460.95
1906,12405.27
1907,12406.19
1908,12477.59
1909,12538.76
1910,12491.73
1911,12399.76
1912,12402.51
1913,12476.09
1914,12473.72
1915,12391.7
1916,12386.55
1917,12487.55
1918,12511.22
1919,12383.7
1920,12319.77
1921,12461.71
1922,12586.75
1923,12478.57
1924,12305.92
1925,12310
1926,12438.16
1927,12523.48
1928,12512.18
1929,12421.31
1930,12322.06
1931,12325.27
1932,12428.58
1933,12503.28
1934,12481.46
1935,12397.31
1936,12298.9
1937,12245.17
1938,12268.58
1939,12322.95
1940,12356.87
1941,12352.62
1942,12307.72
1943,12257.51
1944,12243.45
1945,12257.03
1946,12268.53
1947,12262.58
1948,12233.56
1949,12192.88
1950,12164.79
1951,12163.3
1952,12191.47
1953,12241.76
1954,12293.45
1955,12325.98
1956,12320.69
1957,12273.22
1958,12209.74
1959,12157.93
1960,12138.29
1961,12150.99
1962,12127.23
1963,12019.03
1964,11949.75
1965,12049.95
1966,12188.43
1967,12168.14
1968,12046.1
1969,11984.65
1970,11995.2
1971,12003.49
1972,11979.35
1973,11925.81
1974,11857.05
1975,11796.71
1976,11773.63
1977,11820.19
1978,11907.02
1979,11926.67
1980,11855.51
1981,11806.45
1982,11833.42
1983,11860
1984,11845.97
1985,11862.13
1986,11943.86
1987,11993.9
1988,11929.64
1989,11783.02
1990,11622.73
1991,11570.38
1992,11705.62
1993,11866.19
1994,11868.29
1995,11767.47
1996,11683.36
1997,11650.22
1998,11666.38
1999,11703.83
2000,11726
2001,11722.04
2002,11695.77
2003,11668.83
2004,11667.89
2005,11662.13
2006,11591.18
2007,11490
2008,11455.59
2009,11487.87
2010,11511.79
2011,11502.44
2012,11480.19
2013,11459.92
2014,11449.28
2015,11442.58
2016,11421.47
2017,11395.17
2018,11403.24
2019,11434.52
2020,11415.43
2021,11334.84
2022,11267.25
2023,11231.36
2024,11160.9
2025,11061.78
2026,11055.09
2027,11161.98
2028,11232.74
2029,11190.34
2030,11102.87
2031,11031.06
2032,10999.09
2033,11003.32
2034,10996.77
2035,10943.71
2036,10838.46
2037,10738.7
2038,10815.51
2039,11079.88
2040,11205.82
2041,11035.87
2042,10825.58
2043,10752.61
2044,10739.11
2045,10709.95
2046,10657.77
2047,10599.99
2048,10587.42
2049,10638.61
2050,10699.02
2051,10715.58
2052,10656.01
2053,10535.13
2054,10454.43
2055,10463.51
2056,10493.75
2057,10490.42
2058,10449.54
2059,10375.66
2060,10279.45
2061,10210.64
2062,10283.05
2063,10468.3
2064,10497.16
2065,10323.21
2066,10279.21
2067,10441.3
2068,10461.76
2069,10236.03
2070,10042.83
2071,10016.46
2072,10066.21
2073,10122.44
2074,10159.44
2075,10149.06
2076,10060.12
2077,9924.663
2078,9837.727
2079,9832.903
2080,9880.909
2081,9924.035
2082,9888.632
2083,9803.466
2084,9769.414
2085,9768.559
2086,9709.275
2087,9635.404
2088,9661.542
2089,9743.027
2090,9758.053
2091,9697.559
2092,9607.278
2093,9519.716
2094,9462.111
2095,9465.237
2096,9538.027
2097,9568.263
2098,9455.792
2099,9329.727
2100,9315.191
2101,9283.204
2102,9133.516
2103,9044.992
2104,9134.721
2105,9210.176
2106,9137.489
2107,9026.104
2108,8970.46
2109,8975.294
2110,9009.673
2111,9003.854
2112,8946.399
2113,8904.154
2114,8893.636
2115,8872.672
2116,8825.661
2117,8763.27
2118,8694.533
2119,8628.351
2120,8591.829
2121,8612.866
2122,8637.115
2123,8593.136
2124,8552.496
2125,8603.376
2126,8645.633
2127,8577.8
2128,8509.133
2129,8523.193
2130,8484.251
2131,8333.065
2132,8271.388
2133,8358.636
2134,8344.997
2135,8177.619
2136,8108.137
2137,8143.916
2138,8026.158
2139,7820.033
2140,7836.047
2141,7980.974
2142,7950.199
2143,7863.614
2144,7971.825
2145,8069.648
2146,7908.945
2147,7767.162
2148,7876.602
2149,7895.839
2150,7619.563
2151,7399.229
2152,7413.168
2153,7427.048
2154,7341.598
2155,7269.696
2156,7263.198
2157,7301.661
2158,7309.88
2159,7198.779
2160,7051.648
2161,7008.052
2162,7053.161
2163,7112.821
2164,7090.361
2165,6966.034
2166,6935.769
2167,7056.034
2168,7065.488
2169,6888.401
2170,6729.442
2171,6649
2172,6564.102
2173,6486.146
2174,6477.056
2175,6490.03
2176,6448.16
2177,6368.8
2178,6304.25
2179,6326.227
2180,6415.985
2181,6358.157
2182,6137.555
2183,6052.289
2184,6132.675
2185,6142.873
2186,6113.212
2187,6209.066
2188,6225.493
2189,5920.868
2190,5646.475
2191,5710.186
2192,5801.705
2193,5703.682
2194,5579.579
2195,5553.35
2196,5640.891
2197,5723.799
2198,5616.301
2199,5453.695
2200,5463.729
2201,5463.484
2202,5280.84
2203,5214.689
2204,5379.86
2205,5345.605
2206,5052.175
2207,4963.706
2208,5101.708
2209,5143.358
2210,5115.318
2211,5176.982
2212,5242.563
2213,5201.813
2214,5092.708
2215,4958.648
2216,4808.208
2217,4708.702
2218,4776.073
2219,4900.464
2220,4869.673
2221,4798.609
2222,4840.883
2223,4807.755
2224,4606.471
2225,4509
2226,4562.014
2227,4488.787
2228,4326.122
2229,4325.618
2230,4434.568
2231,4488.922
2232,4439.544
2233,4312.452
2234,4234.23
2235,4216.907
2236,4116.876
2237,3966.719
2238,3914.201
2239,3904.53
2240,3838.888
2241,3795.209
2242,3811.56
2243,3759.108
2244,3629.468
2245,3573.034
2246,3642.708
2247,3797.905
2248,3869.249
2249,3715.07
2250,3429.029
2251,3205.845
2252,3311.065
2253,3566.737
2254,3455.761
2255,3189.495
2256,3218.315
2257,3363.804
2258,3388.801
2259,3304.826
2260,3140.507
2261,2920.296
2262,2847.539
2263,3125.753
2264,3319.759
2265,3075.869
2266,2845.179
2267,2868.362
2268,2908.149
2269,2843.557
2270,2685.728
2271,2555.917
2272,2559.708
2273,2628.599
2274,2666.215
2275,2590.778
2276,2429.813
2277,2294.131
2278,2273.553
2279,2372.997
2280,2368.728
2281,2234.216
2282,2282.412
2283,2418.54
2284,2287.799
2285,2037.935
2286,1947.23
2287,2097.262
2288,2319.685
2289,2192.159
2290,1878.602
2291,1842.187
2292,1872.732
2293,1732.367
2294,1666.163
2295,1744.598
2296,1769.19
2297,1758.087
2298,1800.825
2299,1723.215
2300,1496.022
