400,19211.53
401,19233.56
402,19214.84
403,19180.03
404,19157.34
405,19168.75
406,19207.84
407,19259.99
408,19310.89
409,19349.98
410,19369.59
411,19362.22
412,19328.79
413,19286.45
414,19254.11
415,19247.38
416,19264.47
417,19297.91
418,19340.16
419,19382.47
420,19415.1
421,19428.29
422,19415.13
423,19374.45
424,19305.85
425,19212.38
426,19116.88
427,19049.08
428,19036.78
429,19074.72
430,19128.56
431,19163.21
432,19158.87
433,19128.17
434,19087.86
435,19051.88
436,19018.83
437,18981.9
438,18934.72
439,18877.89
440,18817.98
441,18761.75
442,18713.2
443,18670.85
444,18632.55
445,18595.34
446,18551.84
447,18493.28
448,18412.21
449,18321.21
450,18248.59
451,18222.69
452,18247.93
453,18285.3
454,18291.4
455,18234.51
456,18135.15
457,18028.48
458,17947.33
459,17897.1
460,17864.62
461,17836.5
462,17804.13
463,17766.09
464,17721.61
465,17672.29
466,17628.44
467,17602.29
468,17604.25
469,17628.01
470,17658.1
471,17679.16
472,17680.54
473,17657.32
474,17604.95
475,17526.14
476,17443.65
477,17383.56
478,17366.37
479,17375.44
480,17378.88
481,17346.5
482,17280.74
483,17213.79
484,17178.62
485,17186.79
486,17207.46
487,17204.96
488,17153.73
489,17074.33
490,17000.56
491,16962.92
492,16955.96
493,16950.94
494,16919.45
495,16857.06
496,16791.89
497,16754.31
498,16760.52
499,16784.93
500,16794.35
501,16761.06
502,16694.48
503,16619.69
504,16560.91
505,16527.72
506,16516.63
507,16523.65
508,16540.98
509,16553.7
510,16546.2
511,16507.74
512,16447.08
513,16377.82
514,16312.89
515,16259.22
516,16220.47
517,16200.01
518,16193.8
519,16189.65
520,16175.05
521,16139.85
522,16079.22
523,15989.11
524,15870.85
525,15752.2
526,15668.85
527,15652.1
528,15685.56
529,15722.75
530,15717.9
531,15659.27
532,15577.27
533,15504.79
534,15463.39
535,15446.77
536,15444.39
537,15444.77
538,15430.97
539,15384.35
540,15289.59
541,15169.79
542,15073.25
543,15047.23
544,15092.99
545,15154.07
546,15170.7
547,15111.82
548,15016.41
549,14933.81
550,14902.15
551,14904.34
552,14905.99
553,14876.13
554,14819.16
555,14761.27
556,14728.16
557,14724.16
558,14729.09
559,14721.56
560,14691.77
561,14654.91
562,14629.41
563,14626.73
564,14628.85
565,14609.89
566,14548.32
567,14460.14
568,14380.8
569,14344.16
570,14350.39
571,14367.52
572,14362.65
573,14322.27
574,14266.36
575,14218.15
576,14192.93
577,14180.23
578,14164.32
579,14132.93
580,14095.37
581,14069.37
582,14070.82
583,14091.14
584,14104.26
585,14084.43
586,14026.87
587,13953.35
588,13887.18
589,13841.58
590,13806.98
591,13770.78
592,13724.53
593,13677.35
594,13642.91
595,13632.7
596,13641.26
597,13654.94
598,13660.53
599,13652.1
600,13629.86
601,13594.26
602,13550.08
603,13508.28
604,13480.23
605,13470.67
606,13467.61
607,13456.56
608,13427.4
609,13389.72
610,13358.68
611,13347.21
612,13349.73
613,13351.42
614,13338.27
615,13310.55
616,13280.71
617,13261.3
618,13255.84
619,13255.11
620,13248.98
621,13230.72
622,13201.68
623,13164.37
624,13120.74
625,13070.37
626,13012.23
627,12946.56
628,12882.84
629,12834.66
630,12814.29
631,12816.29
632,12822.16
633,12813.61
634,12786.05
635,12751.22
636,12721.65
637,12702.9
638,12687.05
639,12664.7
640,12631.29
641,12597.6
642,12577.46
643,12580.18
644,12591.03
645,12587.22
646,12549.06
647,12485.25
648,12420.07
649,12376.7
650,12358.04
651,12349.39
652,12335.74
653,12311.65
654,12284.51
655,12262.55
656,12249.13
657,12237.31
658,12218.83
659,12189.87
660,12161.49
661,12147.89
662,12158.77
663,12179.04
664,12185.13
665,12155.87
666,12091.92
667,12005.75
668,11910.3
669,11825.7
670,11777.99
671,11792.31
672,11859.62
673,11928.44
674,11945.19
675,11889.67
676,11804.01
677,11737.04
678,11718.19
679,11721.5
680,11711.23
681,11660.97
682,11585.74
683,11512.09
684,11463.62
685,11443.74
686,11447.17
687,11468.25
688,11496.58
689,11518.79
690,11521.99
691,11502.42
692,11464.86
693,11414.52
694,11360.16
695,11315.47
696,11294.32
697,11299.46
698,11311.91
699,11310.24
700,11282.33
701,11242.72
702,11210.69
703,11200.22
704,11202.72
705,11203.55
706,11190.87
707,11170.32
708,11154.53
709,11154.33
710,11163.67
711,11166.82
712,11149.08
713,11112.08
714,11070.53
715,11039.12
716,11023.06
717,11016.97
718,11014.97
719,11013.63
720,11013.16
721,11014.13
722,11014.2
723,11004.87
724,10976.89
725,10926.86
726,10869.11
727,10821.29
728,10796.82
729,10791.18
730,10795.06
731,10800.13
732,10804.02
733,10806.64
734,10807.64
735,10804.48
736,10793.47
737,10770.97
738,10733.92
739,10679.64
740,10606.11
741,10524.8
742,10459.8
743,10434.86
744,10449.64
745,10473.83
746,10475.72
747,10445.33
748,10408.39
749,10393.7
750,10414.44
751,10449.71
752,10474.22
753,10470.12
754,10441.02
755,10394.4
756,10339.91
757,10295.82
758,10282.44
759,10312.71
760,10361.13
761,10389.81
762,10367.51
763,10309.38
764,10250.44
765,10221.96
766,10220.08
767,10221.38
768,10203.91
769,10166.45
770,10122.53
771,10085.4
772,10057.98
773,10033.96
774,10006.95
775,9977.525
776,9954.146
777,9945.466
778,9952.101
779,9963.31
780,9967.597
781,9958.209
782,9936.739
783,9905.633
784,9869.837
785,9839.824
786,9826.757
787,9835.548
788,9853.852
789,9866.416
790,9863.109
791,9851.487
792,9842.912
793,9844.638
794,9846.123
795,9832.015
796,9791.05
797,9733.969
798,9678.924
799,9641.535
800,9620.558
801,9607.73
802,9595.211
803,9578.633
804,9555.4
805,9523.296
806,9483.916
807,9441.179
808,9398.845
809,9358.37
810,9319.544
811,9282.289
812,9249.678
813,9227.468
814,9221
815,9224.237
816,9219.696
817,9190.079
818,9137.646
819,9087.7
820,9066.267
821,9077.466
822,9095.356
823,9092.216
824,9059.429
825,9018.818
826,8994.688
827,8996.526
828,9006.495
829,9003.937
830,8978.176
831,8939.799
832,8902.065
833,8873.726
834,8852.472
835,8834.33
836,8815.812
837,8794.744
838,8769.198
839,8739.862
840,8715.945
841,8708.349
842,8721.591
843,8736.52
844,8728.553
845,8681.338
846,8613.071
847,8551.022
848,8517.761
849,8513.803
850,8533.061
851,8567.479
852,8598.192
853,8602.773
854,8564.96
855,8505.54
856,8459.117
857,8453.506
858,8471.061
859,8475.324
860,8436.174
861,8370.927
862,8318.506
863,8312.654
864,8343.811
865,8380.824
866,8395.364
867,8385.638
868,8364.264
869,8342.943
870,8323.061
871,8299.948
872,8269.787
873,8238.954
874,8220.236
875,8224.928
876,8245.179
877,8260.279
878,8251.033
879,8220.826
880,8189.173
881,8174.475
882,8174.612
883,8171.959
884,8149.908
885,8113.077
886,8082.976
887,8079.995
888,8098.858
889,8112.882
890,8096.357
891,8051.344
892,8004.058
893,7980.231
894,7982.541
895,7992.854
896,7993.072
897,7979.702
898,7962.866
899,7952.852
900,7952.954
901,7959.77
902,7969.654
903,7979.292
904,7985.702
905,7986.029
906,7979.949
907,7969.667
908,7957.571
909,7948.202
910,7948.275
911,7964.106
912,7990.639
913,8011.167
914,8009.202
915,7984.924
916,7955.69
917,7938.768
918,7931.535
919,7910.884
920,7853.975
921,7765.574
922,7678.786
923,7626.771
924,7616.112
925,7626.315
926,7636.149
927,7633.805
928,7616.957
929,7584.064
930,7541.765
931,7504.788
932,7487.405
933,7487.641
934,7487.792
935,7470.378
936,7434.684
937,7395.794
938,7368.683
939,7354.756
940,7343.024
941,7322.673
942,7294.075
943,7267.496
944,7252.958
945,7250.939
946,7253.807
947,7254.074
948,7250.5
949,7246.919
950,7246.928
951,7248.325
952,7244.411
953,7229.057
954,7205.405
955,7183.419
956,7172.362
957,7170.724
958,7169.515
959,7160.662
960,7148.447
961,7145.232
962,7161.474
963,7185.856
964,7193.765
965,7164.005
966,7110.398
967,7066.687
968,7062.363
969,7087.504
970,7111.418
971,7107.502
972,7083.315
973,7063.006
974,7066.743
975,7085.058
976,7095.289
977,7078.698
978,7042.545
979,7004.625
980,6980.347
981,6970.976
982,6972.572
983,6981.062
984,6991.612
985,6999.154
986,6999.719
987,6994.512
988,6986.271
989,6976.833
990,6964.253
991,6945.6
992,6919.929
993,6893.717
994,6875.155
995,6869.295
996,6870.919
997,6872.714
998,6869.636
999,6863.157
1000,6855.91
1001,6849.517
1002,6843.04
1003,6835.141
1004,6824.668
1005,6810.866
1006,6793.036
1007,6770.875
1008,6745.917
1009,6720.211
1010,6696.35
1011,6679.098
1012,6673.753
1013,6683.575
1014,6704.806
1015,6732.174
1016,6758.84
1017,6773.253
1018,6763.039
1019,6725.539
1020,6682.778
1021,6660.519
1022,6668.858
1023,6683.95
1024,6677.746
1025,6640.732
1026,6597.577
1027,6576.273
1028,6586.131
1029,6607.258
1030,6617.578
1031,6607.957
1032,6586.343
1033,6561.714
1034,6539.595
1035,6521.669
1036,6509.347
1037,6502.631
1038,6500.215
1039,6500.76
1040,6503.109
1041,6506.25
1042,6509.096
1043,6509.665
1044,6505.399
1045,6494.469
1046,6481.416
1047,6474.071
1048,6478.185
1049,6485.229
1050,6480.743
1051,6454.232
1052,6416.192
1053,6384.014
1054,6371.206
1055,6375.354
1056,6389.948
1057,6408.162
1058,6422.11
1059,6423.726
1060,6409.703
1061,6388.495
1062,6370.286
1063,6360.876
1064,6357.657
1065,6357.105
1066,6357.407
1067,6359.302
1068,6363.732
1069,6371.549
1070,6383.505
1071,6400.22
1072,6419.959
1073,6438.857
1074,6453.41
1075,6465.548
1076,6480.971
1077,6504.187
1078,6528.53
1079,6541.471
1080,6533.622
1081,6515.824
1082,6506.82
1083,6519.972
1084,6544.022
1085,6560.688
1086,6557.861
1087,6543.68
1088,6530.416
1089,6525.017
1090,6521.795
1091,6513.272
1092,6495.239
1093,6469.145
1094,6437.084
1095,6404.426
1096,6380.686
1097,6374.996
1098,6383.637
1099,6390.97
1100,6382.028
1101,6355.434
1102,6318.952
1103,6280.44
1104,6247.245
1105,6226.455
1106,6223.514
1107,6235.071
1108,6254.828
1109,6276.715
1110,6295.459
1111,6305.979
1112,6304.568
1113,6290.912
1114,6265.293
1115,6234.151
1116,6214.461
1117,6223.601
1118,6259.655
1119,6297.756
1120,6313.004
1121,6301.935
1122,6278.811
1123,6257.327
1124,6240.466
1125,6225.123
1126,6208.789
1127,6193.029
1128,6180.964
1129,6174.155
1130,6168.006
1131,6156.406
1132,6135.108
1133,6104.62
1134,6066.269
1135,6026.987
1136,6003.117
1137,6011.144
1138,6046.358
1139,6080.342
1140,6085.287
1141,6059.639
1142,6021.398
1143,5988.115
1144,5970.048
1145,5973.913
1146,6002.032
1147,6035.305
1148,6048.069
1149,6025.644
1150,5986.461
1151,5955.056
1152,5943.586
1153,5940.849
1154,5933.404
1155,5919.592
1156,5911.975
1157,5922.859
1158,5947.979
1159,5970.251
1160,5974.87
1161,5968.162
1162,5966.724
1163,5982.649
1164,6006.529
1165,6022.654
1166,6022.427
1167,6017.003
1168,6020.825
1169,6040.15
1170,6067.495
1171,6094.223
1172,6115.763
1173,6131.754
1174,6141.876
1175,6143.959
1176,6134.655
1177,6111.713
1178,6079.736
1179,6045.943
1180,6016.738
1181,5995.684
1182,5985.696
1183,5985.936
1184,5988.041
1185,5982.905
1186,5966.471
1187,5940.689
1188,5907.998
1189,5872.602
1190,5839.973
1191,5815.31
1192,5801.803
1193,5801.813
1194,5814.944
1195,5830.717
1196,5836.394
1197,5824.332
1198,5797.238
1199,5759.173
1200,5717.34
1201,5682.612
1202,5665.083
1203,5662.583
1204,5664.645
1205,5662.669
1206,5660.47
1207,5666.556
1208,5685.573
1209,5709.728
1210,5728.788
1211,5736.662
1212,5734.496
1213,5724.403
1214,5713.745
1215,5715.029
1216,5738.896
1217,5776.408
1218,5807.913
1219,5818.525
1220,5815.999
1221,5814.62
1222,5821.487
1223,5826.544
1224,5817.448
1225,5790.168
1226,5751.376
1227,5708.332
1228,5666.834
1229,5631.653
1230,5607.184
1231,5595.698
1232,5598.678
1233,5614.234
1234,5630.504
1235,5633.966
1236,5621.596
1237,5606.417
1238,5601.932
1239,5607.183
1240,5609.435
1241,5597.849
1242,5577.178
1243,5558.773
1244,5551.792
1245,5558.05
1246,5577.791
1247,5606.295
1248,5630.692
1249,5638.183
1250,5630.669
1251,5622.605
1252,5626.466
1253,5637.728
1254,5644.502
1255,5639.256
1256,5628.841
1257,5622.964
1258,5624.498
1259,5625.404
1260,5617.309
1261,5602.242
1262,5590.652
1263,5591.324
1264,5600.649
1265,5610.092
1266,5614.243
1267,5616.901
1268,5623.448
1269,5634.902
1270,5646.172
1271,5652.114
1272,5652.819
1273,5652.013
1274,5651.847
1275,5645.811
1276,5624.6
1277,5589.862
1278,5568.891
1279,5591.497
1280,5653.891
1281,5714.793
1282,5735.693
1283,5721.805
1284,5701.765
1285,5697.263
1286,5702.528
1287,5705.316
1288,5699.78
1289,5690.991
1290,5684.852
1291,5683.357
1292,5685.365
1293,5689.253
1294,5691.133
1295,5686.285
1296,5672.422
1297,5653.377
1298,5633.907
1299,5618.127
1300,5609.425
1301,5610.737
1302,5621.355
1303,5638.663
1304,5659.118
1305,5675.978
1306,5681.887
1307,5675.66
1308,5665.482
1309,5659.63
1310,5657.327
1311,5651.55
1312,5637.986
1313,5625.713
1314,5627.696
1315,5648.938
1316,5679.003
1317,5706.068
1318,5725.271
1319,5737.719
1320,5744.544
1321,5745.926
1322,5741.701
1323,5734.22
1324,5731.701
1325,5742.762
1326,5765.504
1327,5787.462
1328,5797.417
1329,5796.332
1330,5790.385
1331,5785.942
1332,5789.792
1333,5808.501
1334,5840.081
1335,5872.997
1336,5896.203
1337,5906.51
1338,5904.417
1339,5893.354
1340,5885.12
1341,5892.573
1342,5914.123
1343,5931.273
1344,5927.488
1345,5910.209
1346,5898.51
1347,5904.627
1348,5920.528
1349,5934.55
1350,5937.225
1351,5921.637
1352,5883.532
1353,5838.493
1354,5811.496
1355,5818.435
1356,5849.679
1357,5891.242
1358,5931.21
1359,5959.956
1360,5969.604
1361,5964.169
1362,5952.83
1363,5942.682
1364,5935.542
1365,5932.317
1366,5931.615
1367,5929.808
1368,5924.506
1369,5921.428
1370,5929.305
1371,5950.932
1372,5976.501
1373,5995.242
1374,6007.483
1375,6022.659
1376,6047.165
1377,6071.246
1378,6080.386
1379,6071.58
1380,6061.452
1381,6066.917
1382,6085.224
1383,6100.783
1384,6102.952
1385,6100.142
1386,6104.805
1387,6116.282
1388,6116.814
1389,6091.201
1390,6054.79
1391,6037.808
1392,6054.513
1393,6077.024
1394,6072.112
1395,6038.584
1396,6005.66
1397,5997.36
1398,6002.584
1399,5998.472
1400,5974.456
1401,5942.059
1402,5914.485
1403,5897.325
1404,5891.21
1405,5895.626
1406,5906.389
1407,5918.562
1408,5928.962
1409,5936.484
1410,5940.76
1411,5945.649
1412,5956.758
1413,5975.868
1414,5996.64
1415,6012.296
1416,6024.774
1417,6042.485
1418,6071.719
1419,6109.868
1420,6152.093
1421,6191.263
1422,6217.337
1423,6221.623
1424,6206.49
1425,6179.128
1426,6147.663
1427,6122.136
1428,6111.988
1429,6114.507
1430,6118.157
1431,6114.191
1432,6104.851
1433,6094.924
1434,6090.261
1435,6097.946
1436,6122.002
1437,6146.962
1438,6150.006
1439,6124.141
1440,6091.477
1441,6074.9
1442,6071.499
1443,6062.674
1444,6040.057
1445,6025.556
1446,6044.746
1447,6086.489
1448,6105.835
1449,6070.541
1450,6012.425
1451,5980.871
1452,5992.234
1453,6018.081
1454,6031.024
1455,6034.298
1456,6044.291
1457,6068.762
1458,6098.353
1459,6122.087
1460,6133.575
1461,6129.289
1462,6110.439
1463,6091.574
1464,6088.724
1465,6101.568
1466,6115.594
1467,6118.631
1468,6110.045
1469,6092.319
1470,6074.115
1471,6071.327
1472,6096.153
1473,6137.254
1474,6175.117
1475,6199.072
1476,6212.232
1477,6217.986
1478,6212.544
1479,6188.812
1480,6150.614
1481,6123.857
1482,6133.826
1483,6169.771
1484,6199.122
1485,6201.361
1486,6188.148
1487,6175.541
1488,6168.294
1489,6162.625
1490,6153.402
1491,6131.841
1492,6089.345
1493,6036.232
1494,6000.213
1495,6001.191
1496,6024.903
1497,6048.894
1498,6061.816
1499,6064.42
1500,6059.328
1501,6055.177
1502,6062.142
1503,6079.409
1504,6092.334
1505,6089.357
1506,6081.464
1507,6087.327
1508,6115.117
1509,6158.025
1510,6204.712
1511,6222.488
1512,6170.978
1513,6061.893
1514,5988.907
1515,6035.018
1516,6154.095
1517,6244.657
1518,6258.111
1519,6236.256
1520,6224.434
1521,6226.866
1522,6228.833
1523,6221.427
1524,6206.361
1525,6187.248
1526,6174.019
1527,6179.601
1528,6209.841
1529,6257.491
1530,6312.354
1531,6351.978
1532,6348.108
1533,6298.527
1534,6249.095
1535,6243.914
1536,6269.634
1537,6285.251
1538,6269.627
1539,6237.859
1540,6208.533
1541,6197.326
1542,6218.386
1543,6267.9
1544,6311.187
1545,6317.88
1546,6311.648
1547,6339.337
1548,6404.583
1549,6441.604
1550,6394.037
1551,6309.539
1552,6276.635
1553,6323.186
1554,6388.371
1555,6414.794
1556,6406.687
1557,6390.112
1558,6379.831
1559,6375.893
1560,6376.851
1561,6378.64
1562,6376.618
1563,6373.279
1564,6379.144
1565,6401.437
1566,6431.704
1567,6457.769
1568,6476.229
1569,6492.055
1570,6508.885
1571,6524.606
1572,6535.978
1573,6541.298
1574,6540.106
1575,6535.668
1576,6541.332
1577,6570.733
1578,6620.675
1579,6677.204
1580,6727.722
1581,6763.005
1582,6775.562
1583,6769.143
1584,6753.111
1585,6735.036
1586,6719.422
1587,6708.896
1588,6696.27
1589,6670.983
1590,6635.492
1591,6608.646
1592,6606.096
1593,6624.541
1594,6655.201
1595,6684.335
1596,6693.55
1597,6672.473
1598,6636.333
1599,6604.903
1600,6591.81
1601,6606.489
1602,6651.979
1603,6717.606
1604,6791.021
1605,6861.198
1606,6917.792
1607,6954.871
1608,6973.149
1609,6977.51
1610,6991.337
1611,7042.973
1612,7135.461
1613,7245.861
1614,7350.738
1615,7429.206
1616,7462.411
1617,7451.714
1618,7412.389
1619,7362.04
1620,7322.459
1621,7309.25
1622,7288.836
1623,7207.188
1624,7065.917
1625,6941.004
1626,6892.819
1627,6891.69
1628,6885.653
1629,6856.023
1630,6812.131
1631,6764.607
1632,6725.042
1633,6703.32
1634,6692.712
1635,6678.228
1636,6661.255
1637,6667.806
1638,6715.777
1639,6774.8
1640,6801.907
1641,6787.445
1642,6751.441
1643,6714.69
1644,6697.11
1645,6714.266
1646,6744.619
1647,6748.183
1648,6716.747
1649,6688.434
1650,6692.644
1651,6703.877
1652,6684.522
1653,6647.045
1654,6644.567
1655,6701.789
1656,6775.839
1657,6818.641
1658,6813.253
1659,6757.069
1660,6673.209
1661,6615.854
1662,6620.304
1663,6649.291
1664,6654.764
1665,6647.183
1666,6674.069
1667,6749.241
1668,6827.428
1669,6864.118
1670,6849.079
1671,6784.603
1672,6704.639
1673,6670.775
1674,6710.764
1675,6770.615
1676,6793.146
1677,6782.333
1678,6768.193
1679,6775.989
1680,6825.445
1681,6912.666
1682,6962.554
1683,6900.975
1684,6791.078
1685,6768.209
1686,6853.523
1687,6907.859
1688,6833.562
1689,6736.319
1690,6755.768
1691,6861.673
1692,6915.045
1693,6865.879
1694,6812.454
1695,6836.601
1696,6885.836
1697,6877.901
1698,6834.782
1699,6853.849
1700,6958.399
1701,7034.503
1702,6986.9
1703,6883.369
1704,6835.653
1705,6866.005
1706,6926.869
1707,6978.502
1708,6999.743
1709,6979.941
1710,6951.332
1711,6956.325
1712,6983.425
1713,6978.768
1714,6928.101
1715,6894.616
1716,6931.005
1717,6994.599
1718,7017.867
1719,7001.617
1720,6998.375
1721,7025.777
1722,7036.579
1723,6994.466
1724,6943.771
1725,6946.713
1726,6999.351
1727,7051.965
1728,7072.11
1729,7056.654
1730,7013.156
1731,6980.755
1732,7000.507
1733,7050.144
1734,7070.142
1735,7039.752
1736,6991.832
1737,6957.663
1738,6950.798
1739,6978
1740,7019.027
1741,7041.529
1742,7046.612
1743,7072.29
1744,7128.76
1745,7152.136
1746,7086.189
1747,6991.587
1748,6968.243
1749,7029.261
1750,7114.21
1751,7168.846
1752,7154.906
1753,7060.887
1754,6983.339
1755,7032.845
1756,7152.027
1757,7183.207
1758,7098.336
1759,7041.89
1760,7106.331
1761,7198.704
1762,7211.002
1763,7162.465
1764,7123.06
1765,7114.46
1766,7115.04
1767,7113.904
1768,7123.229
1769,7151.668
1770,7182.425
1771,7194.313
1772,7189.492
1773,7183.362
1774,7185.041
1775,7195.995
1776,7215.038
1777,7235.506
1778,7249.251
1779,7244.707
1780,7211.964
1781,7179.111
1782,7200.34
1783,7277.028
1784,7334.264
1785,7320.432
1786,7270.622
1787,7230.539
1788,7210.556
1789,7207.139
1790,7218.989
1791,7246.5
1792,7281.911
1793,7304.574
1794,7299.805
1795,7275.877
1796,7248.632
1797,7253.945
1798,7330.985
1799,7431.427
1800,7436.219
1801,7331.911
1802,7275.616
1803,7367.733
1804,7482.078
1805,7474.621
1806,7377.844
1807,7291.891
1808,7264.757
1809,7303.254
1810,7380.437
1811,7422.114
1812,7390.434
1813,7359.197
1814,7399.327
1815,7456.774
1816,7443.232
1817,7382.828
1818,7371.781
1819,7425.914
1820,7462.321
1821,7437.145
1822,7407.188
1823,7426.933
1824,7481.294
1825,7537.887
1826,7577.71
1827,7589.128
1828,7571.797
1829,7535.846
1830,7496.119
1831,7474.503
1832,7480.739
1833,7485.829
1834,7462.376
1835,7434.52
1836,7441.122
1837,7477.908
1838,7513.402
1839,7531.816
1840,7535.498
1841,7534.83
1842,7553.946
1843,7601.228
1844,7624.178
1845,7571.332
1846,7485.72
1847,7443.821
1848,7464.49
1849,7525.659
1850,7579.415
1851,7549.1
1852,7429.67
1853,7361.557
1854,7442.059
1855,7558.107
1856,7580.848
1857,7569.241
1858,7640.729
1859,7750.66
1860,7754.032
1861,7641.584
1862,7550.067
1863,7547.773
1864,7570.579
1865,7572.449
1866,7599.735
1867,7691.098
1868,7760.936
1869,7702.658
1870,7573.775
1871,7512.202
1872,7552.304
1873,7640.389
1874,7722.932
1875,7750.625
1876,7712.346
1877,7678.016
1878,7703.788
1879,7760.538
1880,7805.404
1881,7824.793
1882,7816.476
1883,7786.669
1884,7746.645
1885,7710.909
1886,7696.488
1887,7706.209
1888,7723.334
1889,7733.7
1890,7731.61
1891,7714.743
1892,7688.52
1893,7662.333
1894,7657.981
1895,7695.042
1896,7737.878
1897,7727.271
1898,7676.211
1899,7651.678
1900,7666.154
1901,7668.754
1902,7642.565
1903,7633.827
1904,7668.275
1905,7704.432
1906,7708.042
1907,7713.024
1908,7759.114
1909,7823.169
1910,7860.287
1911,7837.461
1912,7733.402
1913,7607.875
1914,7579.519
1915,7648.713
1916,7684.42
1917,7643.875
1918,7633.824
1919,7714.788
1920,7813.657
1921,7860.222
1922,7853.585
1923,7811.777
1924,7775.867
1925,7784.991
1926,7816.418
1927,7826.271
1928,7825.078
1929,7852.217
1930,7888.046
1931,7866.656
1932,7789.222
1933,7732.446
1934,7731.931
1935,7755.143
1936,7774.512
1937,7784.388
1938,7779.713
1939,7749.63
1940,7696.602
1941,7678.818
1942,7746.751
1943,7835.785
1944,7855.837
1945,7815.447
1946,7765.408
1947,7731.601
1948,7723.752
1949,7733.946
1950,7740.666
1951,7724.255
1952,7668.669
1953,7610.437
1954,7653.12
1955,7795.026
1956,7850.56
1957,7736.183
1958,7627.493
1959,7657.824
1960,7747.075
1961,7795.844
1962,7769.529
1963,7668.362
1964,7587.306
1965,7622.739
1966,7710.176
1967,7740.191
1968,7724.285
1969,7724.241
1970,7732.081
1971,7703.765
1972,7663.759
1973,7681.624
1974,7740.123
1975,7748.574
1976,7714.727
1977,7750.957
1978,7857.828
1979,7887.572
1980,7794.999
1981,7707.516
1982,7693.212
1983,7683.418
1984,7634.133
1985,7588.471
1986,7586.871
1987,7631.845
1988,7704.153
1989,7735.715
1990,7682.546
1991,7627.08
1992,7655.934
1993,7742.294
1994,7829.117
1995,7865.947
1996,7817.345
1997,7727.454
1998,7661.485
1999,7618.762
2000,7575.359
2001,7553.576
2002,7588.691
2003,7616.503
2004,7532.869
2005,7422.082
2006,7469.619
2007,7604.12
2008,7587.841
2009,7457.917
2010,7458.153
2011,7588.672
2012,7639.889
2013,7565.584
2014,7480.267
2015,7442.792
2016,7446.925
2017,7477.234
2018,7511.447
2019,7532.522
2020,7530.267
2021,7494.126
2022,7413.629
2023,7327.835
2024,7343.216
2025,7465.984
2026,7546.935
2027,7516.947
2028,7452.635
2029,7413.506
2030,7409.458
2031,7443.15
2032,7512.3
2033,7581.506
2034,7557.607
2035,7426.843
2036,7333.704
2037,7348.103
2038,7364.436
2039,7321.152
2040,7281.49
2041,7276.394
2042,7244.066
2043,7168.791
2044,7149.143
2045,7214.303
2046,7225.874
2047,7128.041
2048,7072.592
2049,7141.526
2050,7226.072
2051,7235.668
2052,7161.955
2053,7036.968
2054,6952.424
2055,6973.933
2056,7103.06
2057,7266.131
2058,7265.237
2059,7058.74
2060,6907.832
2061,6952.025
2062,7066.759
2063,7141.086
2064,7130.621
2065,7049.224
2066,6991.309
2067,6998.026
2068,7021.292
2069,7020.344
2070,6975.985
2071,6918.526
2072,6937.621
2073,7016.391
2074,7008.723
2075,6915.334
2076,6904.039
2077,6969.646
2078,6926.573
2079,6768.376
2080,6662.352
2081,6689.829
2082,6842.473
2083,6972.577
2084,6853.367
2085,6634.553
2086,6690.402
2087,6893.248
2088,6841.814
2089,6606.247
2090,6489.401
2091,6493.019
2092,6487.529
2093,6487.1
2094,6549.684
2095,6615.055
2096,6598.67
2097,6523.521
2098,6443.646
2099,6395.125
2100,6389.204
2101,6362.451
2102,6270.954
2103,6187.969
2104,6180.076
2105,6234.479
2106,6304.442
2107,6297.59
2108,6195.729
2109,6128.867
2110,6139.528
2111,6111.39
2112,6026.825
2113,6010.142
2114,6074.392
2115,6106.347
2116,6074.396
2117,6023.935
2118,5976.952
2119,5936.344
2120,5906.142
2121,5893.66
2122,5924.989
2123,6011.565
2124,6016.531
2125,5825.944
2126,5716.058
2127,5924.42
2128,6095.678
2129,5930.369
2130,5699.677
2131,5639.585
2132,5672.182
2133,5700.974
2134,5674.06
2135,5601.354
2136,5568.842
2137,5592.318
2138,5609.794
2139,5616.166
2140,5648.109
2141,5642.385
2142,5494.52
2143,5292.322
2144,5191.568
2145,5194.654
2146,5257.767
2147,5378.401
2148,5525.966
2149,5549.549
2150,5382.22
2151,5199.146
2152,5119.868
2153,5115.366
2154,5154.803
2155,5219.754
2156,5239.323
2157,5111.576
2158,4951.358
2159,4980.047
2160,5093.164
2161,5070.792
2162,4938.171
2163,4810.325
2164,4820.976
2165,4982.482
2166,4977.318
2167,4680.083
2168,4415.729
2169,4352.994
2170,4394.944
2171,4490.203
2172,4639.784
2173,4769.401
2174,4768.596
2175,4633.898
2176,4423.071
2177,4255.053
2178,4225.77
2179,4297.8
2180,4390.186
2181,4388.182
2182,4279.698
2183,4202.46
2184,4190.195
2185,4169.667
2186,4153.489
2187,4191.644
2188,4165.376
2189,3962.002
2190,3842.333
2191,3974.25
2192,3948.671
2193,3636.553
2194,3611.566
2195,3948.831
2196,4051.051
2197,3868.511
2198,3777.906
2199,3709.621
2200,3448.359
2201,3283.777
2202,3486.027
2203,3724.148
2204,3746.225
2205,3696.821
2206,3629.158
2207,3435.721
2208,3238.189
2209,3301.731
2210,3462.057
2211,3417.815
2212,3278.214
2213,3217.775
2214,3233.06
2215,3249.278
2216,3131.828
2217,2978.944
2218,3107.938
2219,3360.686
2220,3336.31
2221,3170.238
2222,3136.035
2223,3216.507
2224,3278.035
2225,3090.874
2226,2737.393
2227,2676.03
2228,2846.741
2229,2842.366
2230,2761.309
2231,2821.489
2232,2787.929
2233,2547.696
2234,2511.571
2235,2741.806
2236,2782.219
2237,2622.141
2238,2571.591
2239,2594.295
2240,2537.369
2241,2398.549
2242,2263.052
2243,2315.297
2244,2509.645
2245,2538.534
2246,2392.174
2247,2256.297
2248,2221.885
2249,2284.298
2250,2257.471
2251,2112.993
2252,2130.129
2253,2260.69
2254,2174.975
2255,2008.97
2256,2030.452
2257,2009.93
2258,1808.344
2259,1776.085
2260,1953.291
2261,1971.112
2262,1941.518
2263,2182.703
2264,2337.451
2265,2085.295
2266,1827.523
2267,1803.3
2268,1859.476
2269,1931.513
2270,2025.925
2271,2036.898
2272,1873.697
2273,1626.792
2274,1448.227
2275,1512.165
2276,1686.276
2277,1659.358
2278,1566.265
2279,1614.197
2280,1669.186
2281,1626.692
2282,1528.609
2283,1445.93
2284,1442.512
2285,1455.256
2286,1409.354
2287,1337.228
2288,1279.848
2289,1262.819
2290,1303.594
2291,1398.892
2292,1460.633
2293,1423.115
2294,1343.15
2295,1242.711
2296,1096.977
2297,1038.906
2298,1197.998
2299,1298.155
2300,1155.781
