400,43839.85
401,43808.49
402,43761.72
403,43704.59
404,43643.48
405,43583.99
406,43528.53
407,43478.55
408,43435.21
409,43395.58
410,43353.58
411,43303.14
412,43245.48
413,43195.91
414,43171.32
415,43182.22
416,43205.82
417,43208.39
418,43158.34
419,43059.55
420,42945.9
421,42852
422,42797.61
423,42771.63
424,42759.01
425,42746.86
426,42733.87
427,42722.76
428,42715.85
429,42707.36
430,42684.39
431,42633.96
432,42553.04
433,42459.95
434,42375.6
435,42317.48
436,42283.89
437,42266.44
438,42256.57
439,42242.51
440,42209.73
441,42143.78
442,42043.28
443,41933.39
444,41842.38
445,41790.87
446,41760.16
447,41718.75
448,41637.64
449,41523.53
450,41411.24
451,41335.92
452,41310.08
453,41305.11
454,41288.2
455,41233.73
456,41148.16
457,41046.97
458,40944.93
459,40848.75
460,40759.68
461,40678.76
462,40601.7
463,40515.96
464,40408.38
465,40274.7
466,40142.82
467,40047.91
468,40018.69
469,40024.44
470,40001.96
471,39889.85
472,39688.72
473,39474.63
474,39327.75
475,39294.06
476,39325.51
477,39358.18
478,39337.32
479,39268.39
480,39181.69
481,39106.29
482,39047.72
483,38990.01
484,38916.55
485,38820.5
486,38714.38
487,38612.91
488,38527.79
489,38456.93
490,38394.3
491,38334.36
492,38277.25
493,38226.73
494,38186.43
495,38152.07
496,38108.57
497,38040.14
498,37939.2
499,37822.36
500,37710.61
501,37621.64
502,37550.59
503,37483.05
504,37405.66
505,37323.56
506,37258.42
507,37232.17
508,37246.35
509,37264.99
510,37248.26
511,37166.31
512,37029.13
513,36856.63
514,36669.09
515,36490.7
516,36347.68
517,36265.19
518,36239.89
519,36237.03
520,36220.46
521,36170.39
522,36103.79
523,36042.57
524,36002.48
525,35969.39
526,35920.13
527,35834.25
528,35720.59
529,35606.48
530,35518.74
531,35460.77
532,35406.95
533,35330
534,35215.68
535,35082.11
536,34952.23
537,34845.43
538,34763
539,34700.31
540,34652.59
541,34613.37
542,34575.01
543,34530.04
544,34474.65
545,34409.7
546,34336.33
547,34258.01
548,34183.88
549,34123.91
550,34084.53
551,34054.71
552,34017.93
553,33959.01
554,33876.15
555,33775.79
556,33664.65
557,33554.16
558,33461.21
559,33402.82
560,33382.75
561,33376.01
562,33353.95
563,33294.81
564,33206.16
565,33103.35
566,33000.91
567,32906.87
568,32825.82
569,32762.12
570,32715.45
571,32681.09
572,32654.11
573,32624.46
574,32573.23
575,32480.71
576,32341.02
577,32193.56
578,32086.77
579,32058.13
580,32076.38
581,32083.27
582,32024.83
583,31901.93
584,31754.67
585,31623.43
586,31532.88
587,31487.88
588,31491.94
589,31532.93
590,31563.33
591,31530.97
592,31402.61
593,31223.93
594,31061.15
595,30971.86
596,30945.82
597,30940.21
598,30914.09
599,30860.08
600,30798.98
601,30752
602,30721.9
603,30684.82
604,30615
605,30500.02
606,30360.95
607,30223.96
608,30110.72
609,30022.92
610,29956.57
611,29907.31
612,29867.47
613,29827.75
614,29779.61
615,29726.74
616,29683.27
617,29663.18
618,29662.2
619,29650.29
620,29595.67
621,29484.79
622,29347.46
623,29219.64
624,29128.97
625,29069.27
626,29025.57
627,28984.71
628,28946.5
629,28916.47
630,28898.99
631,28881.74
632,28840.08
633,28750.09
634,28616.3
635,28477
636,28372.08
637,28319.85
638,28297.12
639,28276.11
640,28236.31
641,28180.09
642,28114.4
643,28045.41
644,27975.29
645,27904.88
646,27835.18
647,27768.92
648,27709.78
649,27661.06
650,27619.62
651,27576.72
652,27523.67
653,27459.79
654,27395.2
655,27340.7
656,27298.96
657,27255.42
658,27193.4
659,27105.28
660,27014.16
661,26949.55
662,26932.61
663,26938.41
664,26926.21
665,26860.62
666,26754.27
667,26645.8
668,26572.16
669,26540.18
670,26531.83
671,26528.39
672,26510.2
673,26456.43
674,26346.52
675,26185.9
676,26028.73
677,25934.24
678,25932.74
679,25971.55
680,25983.46
681,25918.37
682,25802.22
683,25682.17
684,25598.68
685,25546.66
686,25501.35
687,25440.34
688,25367.55
689,25303.71
690,25268.69
691,25260.4
692,25256.25
693,25233.38
694,25184.7
695,25124.35
696,25067.87
697,25021.47
698,24973.16
699,24908.86
700,24821.77
701,24725.95
702,24639.15
703,24574.23
704,24523.35
705,24473.07
706,24412.69
707,24348.47
708,24293.44
709,24258.72
710,24237.31
711,24211.84
712,24166.05
713,24101.53
714,24034.14
715,23979.66
716,23941.84
717,23911
718,23876.89
719,23835.35
720,23791.56
721,23751.46
722,23714.3
723,23665.07
724,23586.96
725,23474.4
726,23355.88
727,23266.18
728,23229.16
729,23221.93
730,23209.09
731,23161.77
732,23090.5
733,23020.68
734,22974.72
735,22949.3
736,22927.71
737,22893.85
738,22840.78
739,22767.92
740,22675.38
741,22574.37
742,22486.5
743,22433.15
744,22416.84
745,22416.69
746,22410.62
747,22386.58
748,22349.05
749,22304
750,22257.2
751,22213.99
752,22179.65
753,22153.08
754,22114.63
755,22041.35
756,21922.53
757,21795.04
758,21707.25
759,21694.45
760,21724.37
761,21742.76
762,21703.94
763,21621.06
764,21532.54
765,21473.04
766,21441.73
767,21418.05
768,21382.55
769,21332.37
770,21276.42
771,21223.55
772,21177.74
773,21138.57
774,21105.3
775,21072.65
776,21030.19
777,20967.5
778,20885.88
779,20803.17
780,20738.22
781,20698.52
782,20671.5
783,20642.63
784,20602.79
785,20554.81
786,20503.09
787,20453.47
788,20415.96
789,20401.2
790,20410.7
791,20414.21
792,20374.7
793,20269.87
794,20141.21
795,20047.48
796,20033.23
797,20066.9
798,20091.22
799,20058.13
800,19980.5
801,19896.62
802,19840.19
803,19806.73
804,19772.4
805,19715.75
806,19641.17
807,19568.77
808,19517.46
809,19488.2
810,19468.86
811,19447.43
812,19417.23
813,19376.16
814,19322.57
815,19261.62
816,19205.29
817,19165.4
818,19141.41
819,19118.18
820,19080.1
821,19025.91
822,18974.01
823,18943.88
824,18938.06
825,18932.03
826,18899.13
827,18831.26
828,18754.46
829,18698.29
830,18676.03
831,18666.29
832,18643.36
833,18592.09
834,18523.36
835,18451.89
836,18389.59
837,18340.45
838,18307.03
839,18289.23
840,18278.28
841,18263.64
842,18237.04
843,18198.42
844,18149.65
845,18093.57
846,18037.17
847,17988.52
848,17953.13
849,17924.28
850,17891.61
851,17846.83
852,17792.51
853,17734.9
854,17680.3
855,17635.55
856,17607.7
857,17601.28
858,17603.99
859,17596.55
860,17562.79
861,17509.31
862,17453.12
863,17409.04
864,17373.77
865,17334.93
866,17282.25
867,17225.31
868,17184.46
869,17177.26
870,17192.67
871,17202.92
872,17182.41
873,17131.03
874,17064.74
875,16998.91
876,16939.32
877,16885.28
878,16836.45
879,16798.5
880,16781.44
881,16793.77
882,16821.12
883,16831.88
884,16796.56
885,16724.21
886,16654.58
887,16625.87
888,16638.29
889,16660.34
890,16661.05
891,16634.6
892,16597.08
893,16564.6
894,16541.27
895,16520.31
896,16494.85
897,16462.98
898,16427.46
899,16391.15
900,16355.79
901,16322.06
902,16290.55
903,16260.9
904,16231.85
905,16202.18
906,16172.58
907,16145.6
908,16123.63
909,16102.2
910,16069.94
911,16015.84
912,15944.17
913,15874.84
914,15827.64
915,15804.61
916,15789.47
917,15765.63
918,15727.91
919,15682.89
920,15637.64
921,15598.57
922,15571.39
923,15561.22
924,15560.4
925,15548.23
926,15504.66
927,15436.49
928,15377.5
929,15360.81
930,15380.15
931,15390.31
932,15346.81
933,15253.45
934,15160.8
935,15118.84
936,15130.1
937,15152.27
938,15143.22
939,15095.63
940,15034.09
941,14983.36
942,14951.29
943,14930.82
944,14914.39
945,14894.54
946,14863.91
947,14816.09
948,14760.34
949,14718.67
950,14711.64
951,14733.79
952,14759.45
953,14764.05
954,14744.74
955,14714.63
956,14686.15
957,14658.19
958,14620.27
959,14563.46
960,14499.43
961,14453.31
962,14447.52
963,14473.82
964,14505.2
965,14516.74
966,14505.98
967,14483.24
968,14458.13
969,14432.36
970,14403.55
971,14369.8
972,14333.61
973,14299.58
974,14271.32
975,14245.07
976,14213.77
977,14171.88
978,14123.76
979,14077.76
980,14041.26
981,14015.83
982,14000.9
983,13994.99
984,13991.87
985,13983.73
986,13964.77
987,13938.62
988,13911.72
989,13889.2
990,13870.77
991,13854.7
992,13838.67
993,13817.94
994,13787.25
995,13744.83
996,13700.23
997,13665.35
998,13647.09
999,13638.02
1000,13628.16
1001,13609.55
1002,13579.39
1003,13535.68
1004,13481.62
1005,13431.89
1006,13402.71
1007,13404.81
1008,13424.03
1009,13439.03
1010,13433.78
1011,13413.38
1012,13388.16
1013,13367.1
1014,13354.49
1015,13353.57
1016,13363.18
1017,13368.98
1018,13354.28
1019,13312.74
1020,13264.32
1021,13232.99
1022,13229.07
1023,13233.25
1024,13222.52
1025,13189.18
1026,13153.7
1027,13139.27
1028,13152.13
1029,13172.05
1030,13176.86
1031,13157.64
1032,13122.98
1033,13082.62
1034,13046.27
1035,13023.56
1036,13023.29
1037,13038.31
1038,13046.65
1039,13027.45
1040,12984.87
1041,12942.37
1042,12921.75
1043,12920.77
1044,12921.93
1045,12909.41
1046,12883.88
1047,12854.6
1048,12829.93
1049,12811.87
1050,12799.8
1051,12793
1052,12790.6
1053,12791.62
1054,12795.07
1055,12799.77
1056,12804.52
1057,12807.88
1058,12807.77
1059,12801.95
1060,12788.18
1061,12764.28
1062,12728.08
1063,12683.5
1064,12646.08
1065,12632.38
1066,12644.36
1067,12662.16
1068,12664.73
1069,12648.03
1070,12627.79
1071,12620.23
1072,12630.3
1073,12652.8
1074,12682.16
1075,12712.77
1076,12739
1077,12756.64
1078,12774.36
1079,12807.51
1080,12868.04
1081,12946.03
1082,13022.98
1083,13083.24
1084,13124.25
1085,13147.17
1086,13154.27
1087,13151.44
1088,13145.28
1089,13139.95
1090,13133.81
1091,13124.34
1092,13108.61
1093,13082.97
1094,13043.89
1095,12995.07
1096,12949.37
1097,12919.3
1098,12899.36
1099,12867.26
1100,12802.6
1101,12715.39
1102,12636.11
1103,12591.53
1104,12576.17
1105,12569.04
1106,12552.75
1107,12529.74
1108,12509.03
1109,12498.3
1110,12500.17
1111,12516.12
1112,12542.57
1113,12563.47
1114,12561.06
1115,12532.62
1116,12501.18
1117,12491.6
1118,12508.89
1119,12534.36
1120,12548.61
1121,12542.66
1122,12516.14
1123,12469.77
1124,12412.27
1125,12356.86
1126,12314.3
1127,12279.69
1128,12242.21
1129,12192.99
1130,12130.91
1131,12056.8
1132,11975.25
1133,11900.47
1134,11848.04
1135,11820.73
1136,11799.91
1137,11765.64
1138,11718.77
1139,11683.45
1140,11682.88
1141,11709.66
1142,11733.59
1143,11728.25
1144,11702.18
1145,11680.89
1146,11683.54
1147,11697.53
1148,11700.55
1149,11679.93
1150,11652.18
1151,11639.12
1152,11646.66
1153,11650.64
1154,11624.34
1155,11566.67
1156,11507.47
1157,11476.37
1158,11472.28
1159,11470.36
1160,11447.74
1161,11402.56
1162,11343.17
1163,11279.98
1164,11232.85
1165,11224.39
1166,11261.99
1167,11310.88
1168,11329.34
1169,11301.22
1170,11253.24
1171,11215.38
1172,11197.33
1173,11187.67
1174,11174.86
1175,11157.41
1176,11140.18
1177,11127.24
1178,11116.8
1179,11104.87
1180,11087.61
1181,11061.63
1182,11023.71
1183,10978.98
1184,10949.31
1185,10957.67
1186,10998.53
1187,11032.36
1188,11021.04
1189,10971.6
1190,10923.24
1191,10909.57
1192,10922.03
1193,10934.62
1194,10928.66
1195,10912.35
1196,10899.97
1197,10897.86
1198,10896.21
1199,10883.56
1200,10857.85
1201,10827.98
1202,10803.14
1203,10787.69
1204,10782.83
1205,10788.35
1206,10796.26
1207,10795.6
1208,10779.79
1209,10756.49
1210,10736.13
1211,10725.11
1212,10722.72
1213,10727.59
1214,10738.68
1215,10755.29
1216,10776.11
1217,10793.95
1218,10798.44
1219,10783.96
1220,10767.26
1221,10771.5
1222,10806.52
1223,10850.48
1224,10877.34
1225,10878.64
1226,10868.53
1227,10861.48
1228,10856.43
1229,10841.41
1230,10807.72
1231,10767.49
1232,10740.6
1233,10739.14
1234,10752.06
1235,10764.22
1236,10768.06
1237,10767.67
1238,10767.99
1239,10772.11
1240,10781.59
1241,10796.31
1242,10804.9
1243,10791.2
1244,10749.4
1245,10707.86
1246,10701.58
1247,10736.68
1248,10771.83
1249,10764.05
1250,10719.73
1251,10687.39
1252,10708.33
1253,10762.68
1254,10804.07
1255,10802.16
1256,10779.54
1257,10769.36
1258,10783.33
1259,10798.88
1260,10791.81
1261,10761.19
1262,10724.89
1263,10699.37
1264,10688.25
1265,10690.02
1266,10701.45
1267,10714.2
1268,10719.1
1269,10713.92
1270,10706.04
1271,10702.76
1272,10701.17
1273,10691.21
1274,10666.34
1275,10639.24
1276,10628.79
1277,10643.72
1278,10668.92
1279,10686.28
1280,10689.56
1281,10685.85
1282,10682.09
1283,10677.91
1284,10669
1285,10653.89
1286,10642.24
1287,10646.19
1288,10668.31
1289,10694.76
1290,10710.84
1291,10713.86
1292,10710.8
1293,10708.03
1294,10706.66
1295,10705.84
1296,10706.72
1297,10715.47
1298,10738.49
1299,10766.42
1300,10772.03
1301,10732.27
1302,10670.24
1303,10633.15
1304,10652.04
1305,10699.78
1306,10736.76
1307,10744.26
1308,10735.28
1309,10724.76
1310,10718.11
1311,10714.14
1312,10711.92
1313,10712.48
1314,10717.38
1315,10728.98
1316,10751.16
1317,10787.12
1318,10825.21
1319,10841.12
1320,10817.13
1321,10777.41
1322,10761.47
1323,10789.62
1324,10837.08
1325,10873.56
1326,10891.09
1327,10904.09
1328,10924.68
1329,10941.62
1330,10933.69
1331,10894.43
1332,10857.01
1333,10859.97
1334,10906.72
1335,10961.55
1336,10990.83
1337,10993.75
1338,10984.89
1339,10976.4
1340,10973.11
1341,10978.38
1342,10990.15
1343,11000.01
1344,11000.47
1345,10994.39
1346,10989.71
1347,10988.32
1348,10974.43
1349,10929.98
1350,10866.83
1351,10831.64
1352,10863.92
1353,10930.75
1354,10965.02
1355,10930.28
1356,10876.35
1357,10866.12
1358,10909.58
1359,10958.89
1360,10971.15
1361,10960.22
1362,10964.57
1363,11002.32
1364,11040.45
1365,11039.87
1366,11003.09
1367,10973.1
1368,10986.36
1369,11029
1370,11068.34
1371,11085.46
1372,11090.7
1373,11097.79
1374,11114.58
1375,11144.11
1376,11187.65
1377,11238.65
1378,11288.17
1379,11326.82
1380,11344.49
1381,11332.52
1382,11300.88
1383,11271.67
1384,11258.76
1385,11245.13
1386,11207.11
1387,11141.99
1388,11074.28
1389,11028.1
1390,11008.63
1391,11011.8
1392,11030.51
1393,11049.87
1394,11054.27
1395,11040.22
1396,11015.77
1397,10988.51
1398,10961.2
1399,10934.94
1400,10912.49
1401,10899.59
1402,10901.58
1403,10915.44
1404,10932.67
1405,10947.04
1406,10960.51
1407,10976.7
1408,10995.38
1409,11011.73
1410,11020.74
1411,11017.92
1412,10998.95
1413,10965.88
1414,10934.08
1415,10919.86
1416,10927.92
1417,10954.37
1418,10992.38
1419,11024.65
1420,11031.9
1421,11015.68
1422,11003.96
1423,11020.61
1424,11047.85
1425,11049.93
1426,11012.76
1427,10968.88
1428,10954.12
1429,10966.73
1430,10977.62
1431,10966.4
1432,10946.83
1433,10939.93
1434,10948.87
1435,10956.06
1436,10947.18
1437,10935.79
1438,10946.01
1439,10985.36
1440,11030.87
1441,11058.05
1442,11062.13
1443,11050.26
1444,11029.64
1445,11007.03
1446,10989.11
1447,10982.35
1448,10993.06
1449,11024.17
1450,11063.54
1451,11094.91
1452,11111.81
1453,11121.15
1454,11129.4
1455,11133.27
1456,11125.35
1457,11107.02
1458,11097.05
1459,11113.94
1460,11150.4
1461,11183.04
1462,11196.02
1463,11195.8
1464,11192.66
1465,11195.21
1466,11210.57
1467,11242.12
1468,11278.15
1469,11303.3
1470,11309.23
1471,11295.74
1472,11265.62
1473,11235.56
1474,11226.94
1475,11245.68
1476,11273.6
1477,11292.21
1478,11297.31
1479,11291.44
1480,11278.36
1481,11264.19
1482,11254.42
1483,11244.63
1484,11224.37
1485,11190.91
1486,11161.75
1487,11155.65
1488,11161.74
1489,11146.76
1490,11094.69
1491,11047.77
1492,11057.19
1493,11114.87
1494,11158.28
1495,11142.73
1496,11103.78
1497,11095.69
1498,11132.08
1499,11182.28
1500,11216.89
1501,11223.74
1502,11196.4
1503,11150.36
1504,11128.69
1505,11164.38
1506,11223.11
1507,11247.82
1508,11223.7
1509,11196.18
1510,11206.38
1511,11237.14
1512,11248.76
1513,11228.07
1514,11203.73
1515,11203.6
1516,11222.59
1517,11241.51
1518,11250.03
1519,11253.01
1520,11256.78
1521,11267.57
1522,11291.5
1523,11329.33
1524,11372.21
1525,11409.81
1526,11427.97
1527,11410.87
1528,11363.15
1529,11327.11
1530,11342.31
1531,11392.06
1532,11432.26
1533,11440.6
1534,11435.37
1535,11437.03
1536,11447.76
1537,11460.9
1538,11469.98
1539,11469.1
1540,11453.64
1541,11428.86
1542,11404.66
1543,11394.45
1544,11417.53
1545,11486.68
1546,11563.05
1547,11585.69
1548,11541.4
1549,11493.66
1550,11501.39
1551,11546.84
1552,11581.84
1553,11582.13
1554,11558.55
1555,11525.4
1556,11500.71
1557,11503.23
1558,11527.52
1559,11536.76
1560,11504.54
1561,11467.39
1562,11479.63
1563,11540.64
1564,11588.06
1565,11575.83
1566,11540.73
1567,11539.07
1568,11579.5
1569,11625.17
1570,11647.78
1571,11654.84
1572,11660.5
1573,11663.07
1574,11648.3
1575,11615.62
1576,11602.75
1577,11648.62
1578,11730.34
1579,11785.63
1580,11785.14
1581,11771.7
1582,11791.51
1583,11839.48
1584,11885.01
1585,11907.85
1586,11905.31
1587,11881.06
1588,11867.62
1589,11907.34
1590,11999.31
1591,12088.15
1592,12129.8
1593,12146.04
1594,12175.5
1595,12229.01
1596,12291.36
1597,12348.61
1598,12394.01
1599,12422.18
1600,12427.69
1601,12405.07
1602,12361.89
1603,12333.72
1604,12352.45
1605,12390.23
1606,12391.43
1607,12342.94
1608,12295.71
1609,12293.4
1610,12314.26
1611,12316.89
1612,12292.49
1613,12265.72
1614,12253.79
1615,12244.23
1616,12220.43
1617,12190.79
1618,12180.81
1619,12198.65
1620,12215.43
1621,12202.43
1622,12166.18
1623,12128.64
1624,12104.36
1625,12097.9
1626,12111.49
1627,12140.33
1628,12177.13
1629,12205.02
1630,12199.1
1631,12150.61
1632,12092.25
1633,12059.07
1634,12049.92
1635,12045.19
1636,12032.91
1637,12012.98
1638,11988.85
1639,11976.4
1640,11993.61
1641,12027.86
1642,12039.29
1643,12006.02
1644,11955.43
1645,11918.87
1646,11892.7
1647,11856.03
1648,11818.95
1649,11836.82
1650,11943.19
1651,12059.66
1652,12083.1
1653,12014.6
1654,11939.93
1655,11916.75
1656,11932.67
1657,11965.03
1658,11987.49
1659,11973.02
1660,11926.63
1661,11892.25
1662,11902.69
1663,11943.75
1664,11991.09
1665,12022.32
1666,12016.58
1667,11979.84
1668,11964.28
1669,12011.06
1670,12081.67
1671,12114.83
1672,12094.76
1673,12045.62
1674,11993.89
1675,11968.17
1676,11990.69
1677,12036.09
1678,12059.81
1679,12054.89
1680,12057.08
1681,12088.42
1682,12121.83
1683,12124.75
1684,12101.52
1685,12076.28
1686,12065.01
1687,12071.94
1688,12095.86
1689,12118.46
1690,12119.54
1691,12105.29
1692,12098.78
1693,12110.23
1694,12128.41
1695,12141.28
1696,12142.24
1697,12127.13
1698,12104.67
1699,12092.92
1700,12098.9
1701,12109.31
1702,12115.51
1703,12142.29
1704,12220.1
1705,12309.04
1706,12314.83
1707,12208.05
1708,12085.63
1709,12039.32
1710,12061.37
1711,12113.37
1712,12168.07
1713,12207.02
1714,12216.77
1715,12192.93
1716,12139.53
1717,12097.03
1718,12112.84
1719,12169.65
1720,12201.19
1721,12177.76
1722,12137.45
1723,12114.28
1724,12091.27
1725,12041.74
1726,12000.52
1727,12044.08
1728,12168.08
1729,12237.25
1730,12157.8
1731,12046.57
1732,12055.16
1733,12151.37
1734,12194.63
1735,12142.22
1736,12086.94
1737,12097.71
1738,12134.91
1739,12145.43
1740,12145.08
1741,12181.5
1742,12244.81
1743,12261.66
1744,12197.56
1745,12123.32
1746,12112.17
1747,12152.27
1748,12200.24
1749,12222.05
1750,12191.96
1751,12117.52
1752,12067.29
1753,12093.41
1754,12147.9
1755,12162.66
1756,12145.97
1757,12152.22
1758,12200.28
1759,12261.29
1760,12307.16
1761,12321.73
1762,12294.49
1763,12239.54
1764,12181.04
1765,12138.19
1766,12125.55
1767,12143.37
1768,12165.3
1769,12168.57
1770,12157.99
1771,12145.56
1772,12142.65
1773,12159.52
1774,12182.33
1775,12168.75
1776,12107.52
1777,12068.05
1778,12112.79
1779,12197.98
1780,12247.85
1781,12245.67
1782,12216.69
1783,12177.62
1784,12131.7
1785,12089.79
1786,12088.27
1787,12155.48
1788,12236.79
1789,12249.46
1790,12193.24
1791,12133.91
1792,12110.72
1793,12118.12
1794,12146.5
1795,12186.1
1796,12224.37
1797,12230.58
1798,12170.15
1799,12073.03
1800,12021.77
1801,12045.96
1802,12088.7
1803,12104.1
1804,12105.12
1805,12112.54
1806,12122.32
1807,12121.66
1808,12116.43
1809,12126.54
1810,12152.43
1811,12165.8
1812,12144.8
1813,12092.09
1814,12018.3
1815,11954.96
1816,11937.75
1817,11963.96
1818,12005.83
1819,12048.34
1820,12092.43
1821,12131.28
1822,12138.77
1823,12100.81
1824,12066.72
1825,12093.34
1826,12153.04
1827,12177.54
1828,12153.06
1829,12116.46
1830,12091.65
1831,12078.08
1832,12068.26
1833,12040.71
1834,11980.86
1835,11929.1
1836,11938.44
1837,11979.28
1838,11971.7
1839,11915.99
1840,11902.58
1841,11965.34
1842,12018.67
1843,12000.05
1844,11976.58
1845,12022.83
1846,12076.26
1847,12031.01
1848,11931.46
1849,11922.11
1850,12008.49
1851,12031.44
1852,11925.11
1853,11827.84
1854,11850.37
1855,11923.02
1856,11954.37
1857,11962.58
1858,12001.38
1859,12047.51
1860,12030.67
1861,11960.79
1862,11933.69
1863,11983.62
1864,12029.86
1865,12012.93
1866,11970.03
1867,11943.98
1868,11916.3
1869,11858
1870,11818.51
1871,11880.48
1872,11987.12
1873,11967.31
1874,11807.09
1875,11707.03
1876,11774.05
1877,11882.44
1878,11918.6
1879,11917.07
1880,11931.71
1881,11939.76
1882,11896.01
1883,11808.35
1884,11715.38
1885,11656.53
1886,11670.71
1887,11755.41
1888,11851.57
1889,11910.64
1890,11915.23
1891,11863.49
1892,11792.35
1893,11741.18
1894,11718.84
1895,11721.2
1896,11718.8
1897,11673.55
1898,11613.43
1899,11614.81
1900,11674.6
1901,11698.47
1902,11654.91
1903,11626.87
1904,11665.27
1905,11712.04
1906,11709.28
1907,11665.24
1908,11606.06
1909,11569.42
1910,11590.22
1911,11637.89
1912,11650.12
1913,11619.82
1914,11582.54
1915,11556.46
1916,11539.3
1917,11527.94
1918,11519.71
1919,11515.57
1920,11524.57
1921,11548.7
1922,11563.49
1923,11547.47
1924,11519.38
1925,11505.72
1926,11504.1
1927,11500.43
1928,11486.77
1929,11460.71
1930,11449
1931,11499.24
1932,11575.07
1933,11548.04
1934,11410.26
1935,11342.76
1936,11431.32
1937,11533.4
1938,11532.54
1939,11465.57
1940,11391.82
1941,11353.58
1942,11376.84
1943,11421.29
1944,11432.8
1945,11419.9
1946,11414.59
1947,11397.3
1948,11323.46
1949,11241.46
1950,11266.58
1951,11366.1
1952,11359.12
1953,11217.47
1954,11119.88
1955,11143.64
1956,11172.13
1957,11135.33
1958,11104.24
1959,11127.24
1960,11137.81
1961,11081.61
1962,11020.81
1963,11019.27
1964,11024.47
1965,10968.64
1966,10898.59
1967,10889.78
1968,10905.27
1969,10865.84
1970,10802.46
1971,10805.23
1972,10885.81
1973,10997.39
1974,11069.39
1975,11016.15
1976,10874.33
1977,10808.21
1978,10857.63
1979,10895.69
1980,10861.13
1981,10810.67
1982,10783.31
1983,10766.63
1984,10749.34
1985,10734.74
1986,10728.56
1987,10737.84
1988,10759
1989,10754.56
1990,10709.21
1991,10715.32
1992,10837.35
1993,10903.73
1994,10743.72
1995,10533.98
1996,10511.23
1997,10585.09
1998,10568
1999,10465.17
2000,10362.27
2001,10312.67
2002,10346.85
2003,10429.52
2004,10491.88
2005,10508.48
2006,10481.59
2007,10412.25
2008,10304.39
2009,10225.19
2010,10282.26
2011,10410.16
2012,10401.45
2013,10258.78
2014,10184.04
2015,10221.38
2016,10245.07
2017,10217.09
2018,10206.38
2019,10238.95
2020,10281.42
2021,10303.29
2022,10283.12
2023,10224.01
2024,10162.4
2025,10121.29
2026,10099.87
2027,10092.42
2028,10088.5
2029,10071.58
2030,10016.05
2031,9920.341
2032,9825.828
2033,9763.381
2034,9737.103
2035,9741.264
2036,9757.165
2037,9780.098
2038,9834.478
2039,9900.808
2040,9868.043
2041,9714.128
2042,9614.684
2043,9667.414
2044,9765.768
2045,9799.922
2046,9704.059
2047,9512.24
2048,9448.695
2049,9588.193
2050,9659.651
2051,9528.438
2052,9412.897
2053,9425.249
2054,9389.862
2055,9243.411
2056,9198.973
2057,9317.417
2058,9321.641
2059,9119.495
2060,9014.051
2061,9140.512
2062,9275.133
2063,9290.43
2064,9275.266
2065,9267.57
2066,9195.714
2067,9078.171
2068,9077.561
2069,9201.328
2070,9228.488
2071,9100.736
2072,8990.878
2073,8956.602
2074,8900.051
2075,8818.264
2076,8820.639
2077,8892.574
2078,8891.256
2079,8816.135
2080,8800.401
2081,8844.855
2082,8839.113
2083,8801.833
2084,8842.08
2085,8882.683
2086,8738.067
2087,8512.269
2088,8461.691
2089,8519.624
2090,8472.029
2091,8410.506
2092,8525.052
2093,8613.007
2094,8388.878
2095,8112.294
2096,8144.081
2097,8292.978
2098,8277.249
2099,8212.694
2100,8253.266
2101,8282.067
2102,8186.254
2103,8066.727
2104,8013.919
2105,7978.686
2106,7925.267
2107,7898.272
2108,7922.706
2109,7967.16
2110,8017.305
2111,8093.034
2112,8139.369
2113,8008.457
2114,7769.583
2115,7717.853
2116,7850.919
2117,7904.798
2118,7821.73
2119,7701.474
2120,7631.284
2121,7668.021
2122,7700.323
2123,7582.135
2124,7460.321
2125,7524.012
2126,7616.427
2127,7553.007
2128,7440.942
2129,7400.025
2130,7386.194
2131,7345.269
2132,7267.566
2133,7162.496
2134,7062.128
2135,6989.317
2136,6951.689
2137,6974.062
2138,7090.646
2139,7165.367
2140,6957.689
2141,6660.142
2142,6679.448
2143,6888.767
2144,6965.197
2145,6970.64
2146,7042.858
2147,7044.692
2148,6864.946
2149,6699.917
2150,6703.781
2151,6799.967
2152,6871.685
2153,6792.939
2154,6602.491
2155,6533.258
2156,6610.173
2157,6664.865
2158,6627.988
2159,6509.496
2160,6384.285
2161,6333.967
2162,6305.651
2163,6230.984
2164,6159.683
2165,6144.366
2166,6170.427
2167,6175.244
2168,6032.14
2169,5779.374
2170,5669.942
2171,5757.662
2172,5898.017
2173,5946.446
2174,5799.489
2175,5624.073
2176,5641.115
2177,5741.654
2178,5758.794
2179,5661.343
2180,5501.229
2181,5446.749
2182,5521.306
2183,5525.573
2184,5437.681
2185,5411.85
2186,5408.302
2187,5287.616
2188,5167.967
2189,5211.622
2190,5253.303
2191,5139.447
2192,5022.388
2193,5002.703
2194,4983.29
2195,4938.381
2196,4949.187
2197,4982.209
2198,4926.05
2199,4849.516
2200,4880.544
2201,4951.781
2202,4946.916
2203,4801.781
2204,4590.184
2205,4630.257
2206,4889.072
2207,4885.886
2208,4672.548
2209,4686.528
2210,4780.225
2211,4611.798
2212,4374.438
2213,4305.449
2214,4293.105
2215,4256.653
2216,4276.18
2217,4358.169
2218,4418.657
2219,4454.041
2220,4498.455
2221,4462.905
2222,4281.611
2223,4156.006
2224,4175.479
2225,4068.188
2226,3819.882
2227,3772.387
2228,3840.804
2229,3673.487
2230,3491.979
2231,3622.557
2232,3758.646
2233,3667.263
2234,3635.27
2235,3698.306
2236,3504.718
2237,3197.37
2238,3226.749
2239,3379.94
2240,3304.003
2241,3238.619
2242,3365.756
2243,3456.284
2244,3396.454
2245,3269.575
2246,3163.792
2247,3133.649
2248,3057.964
2249,2863.917
2250,2829.448
2251,3051.685
2252,3217.494
2253,3169.897
2254,2949.321
2255,2719.104
2256,2653.525
2257,2714.66
2258,2786.143
2259,2712.088
2260,2555.636
2261,2612.707
2262,2760.434
2263,2677.013
2264,2498.276
2265,2434.718
2266,2471.251
2267,2492.302
2268,2318.415
2269,2119.63
2270,2239.794
2271,2433.988
2272,2374.579
2273,2184.3
2274,2051.091
2275,2117.038
2276,2278.041
2277,2277.809
2278,2134.351
2279,1982.878
2280,1967.815
2281,2074.409
2282,2062.436
2283,1979.737
2284,2050.26
2285,2101.465
2286,1935.614
2287,1726.768
2288,1627.148
2289,1660.567
2290,1778.887
2291,1885.331
2292,1858.012
2293,1671.973
2294,1551.982
2295,1542.256
2296,1454.291
2297,1338.666
2298,1336.043
2299,1350.9
2300,1294.358
