400,32242.35
401,32213.4
402,32191.79
403,32174.13
404,32156.56
405,32135.97
406,32112.69
407,32088.01
408,32063.34
409,32041.15
410,32024.78
411,32017.54
412,32017.92
413,32015.08
414,31997.18
415,31956.21
416,31904.26
417,31860.1
418,31841.12
419,31842.77
420,31841.85
421,31814.8
422,31752.16
423,31673.96
424,31603.86
425,31561
426,31539.27
427,31523.71
428,31499.91
429,31462.89
430,31415.96
431,31362.65
432,31307.08
433,31254.51
434,31210.31
435,31177.96
436,31150.15
437,31115.81
438,31064.37
439,30992.62
440,30903.71
441,30801.04
442,30694.01
443,30604.27
444,30554.85
445,30559.96
446,30587.85
447,30591.94
448,30529.22
449,30408.61
450,30279.86
451,30193.26
452,30168.7
453,30170.84
454,30158.71
455,30101.15
456,30010.82
457,29912.68
458,29829.97
459,29765.91
460,29710.12
461,29652.1
462,29587.62
463,29521.96
464,29461.19
465,29409.16
466,29361.63
467,29312.56
468,29256.64
469,29195.4
470,29134.14
471,29078
472,29026.7
473,28973.43
474,28911.01
475,28837.51
476,28765.49
477,28709.92
478,28681.96
479,28667.21
480,28640.83
481,28579.39
482,28486.67
483,28391.23
484,28322.31
485,28292
486,28278.5
487,28256.13
488,28205.23
489,28133.67
490,28057.15
491,27990.69
492,27941.56
493,27912.06
494,27904.1
495,27907.2
496,27893.94
497,27835.85
498,27719.63
499,27576.88
500,27447.37
501,27365.3
502,27327.47
503,27314.87
504,27309.16
505,27303.92
506,27303.29
507,27311.74
508,27325.7
509,27326.95
510,27295.74
511,27219.44
512,27113.86
513,27001.9
514,26904.25
515,26821.81
516,26744.63
517,26663.13
518,26579.65
519,26509.69
520,26469.32
521,26462.69
522,26467.19
523,26456.62
524,26410.47
525,26335.57
526,26247.01
527,26159.31
528,26081.16
529,26017.55
530,25973.16
531,25944.18
532,25916.24
533,25874.45
534,25811.07
535,25736.15
536,25662.38
537,25599.29
538,25539.79
539,25471.43
540,25383.68
541,25288.3
542,25211.7
543,25179.6
544,25189.5
545,25203.37
546,25181.18
547,25103.01
548,24997.99
549,24902.46
550,24845.42
551,24819.67
552,24806.66
553,24789.23
554,24764.63
555,24738.93
556,24718.03
557,24698.61
558,24666.78
559,24608.17
560,24520.43
561,24427.16
562,24355.26
563,24323.06
564,24312.58
565,24296.16
566,24249.05
567,24171.36
568,24076.09
569,23976.31
570,23885.62
571,23818.1
572,23787.58
573,23790.87
574,23795.3
575,23765.41
576,23681.7
577,23576.72
578,23493.51
579,23466.24
580,23473.65
581,23472.75
582,23423.88
583,23330.44
584,23226.75
585,23146.96
586,23101.71
587,23071.86
588,23036.51
589,22983.79
590,22922.2
591,22863.01
592,22814.07
593,22769.23
594,22718.62
595,22654.76
596,22588.86
597,22541.17
598,22530.24
599,22546.62
600,22557.31
601,22529.21
602,22454.18
603,22360.01
604,22277.12
605,22225.23
606,22197.4
607,22182.6
608,22171.06
609,22158.75
610,22143.26
611,22122.41
612,22095.7
613,22063.52
614,22026.15
615,21982.02
616,21928.01
617,21861.07
618,21783.75
619,21706.43
620,21640.02
621,21589.95
622,21548.58
623,21506.43
624,21457.07
625,21406.77
626,21365.01
627,21339.64
628,21326.55
629,21316.29
630,21299.64
631,21270.16
632,21223.52
633,21155.76
634,21073.8
635,20997.48
636,20947.15
637,20928.19
638,20917.23
639,20887.71
640,20822.5
641,20734.28
642,20641.63
643,20562.16
644,20508.7
645,20492.42
646,20521.28
647,20573.15
648,20609.44
649,20593.58
650,20525.03
651,20434.52
652,20353.22
653,20294.18
654,20245.94
655,20195.47
656,20137.52
657,20083.32
658,20046.16
659,20033.86
660,20035.69
661,20037.04
662,20024.14
663,19987.48
664,19919.06
665,19814.26
666,19699.58
667,19618.32
668,19610.48
669,19661.32
670,19710.89
671,19699.56
672,19617.56
673,19516.96
674,19453.15
675,19449.69
676,19470.61
677,19473.58
678,19430.35
679,19352.92
680,19260.42
681,19169.93
682,19089.61
683,19025.09
684,18980.75
685,18952.03
686,18930.53
687,18908.4
688,18883.53
689,18857.48
690,18831.82
691,18806.61
692,18780.54
693,18752.31
694,18721.98
695,18691.48
696,18662.85
697,18633.33
698,18590.78
699,18522.05
700,18426.11
701,18336.87
702,18294.38
703,18323.32
704,18382.74
705,18414.17
706,18370.15
707,18272.9
708,18172.19
709,18113.23
710,18097.5
711,18101.61
712,18102.68
713,18089.78
714,18061.45
715,18016.75
716,17960.91
717,17906.04
718,17864.39
719,17840.61
720,17827.59
721,17817.23
722,17804.78
723,17792.61
724,17784
725,17778.5
726,17764.26
727,17727.33
728,17659.12
729,17573.88
730,17491.96
731,17431.45
732,17396.96
733,17388
734,17402.31
735,17422.43
736,17422.93
737,17380.81
738,17303.61
739,17220.33
740,17159.05
741,17121.87
742,17086.49
743,17030.48
744,16954.97
745,16890.33
746,16868.26
747,16894.36
748,16931.38
749,16938.42
750,16897.46
751,16840.28
752,16805.07
753,16813.45
754,16838.94
755,16846.49
756,16811.5
757,16749.89
758,16687.42
759,16644.36
760,16612.49
761,16574.4
762,16515.94
763,16445.94
764,16383.08
765,16343.73
766,16322.63
767,16302.49
768,16267.15
769,16216.25
770,16160.64
771,16111.05
772,16072.44
773,16044.61
774,16026.88
775,16011.35
776,15981.93
777,15922.62
778,15839.2
779,15768.22
780,15748.05
781,15788.57
782,15849.38
783,15885.27
784,15872.08
785,15832.04
786,15793.46
787,15773.12
788,15755.9
789,15721.33
790,15658.04
791,15586.46
792,15533.77
793,15518.43
794,15521.09
795,15512.18
796,15468.26
797,15398.96
798,15325.04
799,15265.11
800,15223.56
801,15198.84
802,15188.38
803,15180.77
804,15160.21
805,15112.76
806,15044.26
807,14972.56
808,14914.88
809,14878.23
810,14862.21
811,14865.51
812,14873.1
813,14858.21
814,14795.39
815,14695.59
816,14606.44
817,14575.56
818,14605.34
819,14644.88
820,14641.29
821,14578.6
822,14491.5
823,14417.92
824,14377.53
825,14360.84
826,14355.86
827,14352.53
828,14344.42
829,14325.53
830,14293.83
831,14255.76
832,14218.79
833,14186.85
834,14155.05
835,14117.25
836,14071.03
837,14024.67
838,13988.27
839,13968.41
840,13960.27
841,13956.72
842,13951.24
843,13939.32
844,13916.97
845,13882.09
846,13840.62
847,13800.61
848,13767.9
849,13737.91
850,13702.98
851,13657.96
852,13611.39
853,13576.32
854,13562.83
855,13562.95
856,13562
857,13547.13
858,13517.54
859,13477.46
860,13431.56
861,13387.9
862,13356.03
863,13343.63
864,13342.5
865,13336.52
866,13311.49
867,13270.54
868,13226.25
869,13190.18
870,13162.82
871,13138.24
872,13111.16
873,13084.73
874,13067.38
875,13066.29
876,13072.68
877,13066.99
878,13031.43
879,12973.12
880,12916.98
881,12886.84
882,12885.54
883,12900.14
884,12917.69
885,12931.21
886,12938.44
887,12937.13
888,12923.04
889,12890.21
890,12833.53
891,12763.69
892,12705.15
893,12681.29
894,12688.27
895,12697.61
896,12681.45
897,12639.74
898,12598.38
899,12583.02
900,12594.77
901,12611.19
902,12609.85
903,12588.61
904,12565.17
905,12557.37
906,12567.72
907,12583.45
908,12591.52
909,12586.75
910,12571.96
911,12550.34
912,12525.27
913,12500.34
914,12478.83
915,12456.59
916,12421.75
917,12362.95
918,12287.73
919,12223.16
920,12195.8
921,12201.15
922,12202.8
923,12164.55
924,12086.99
925,12008.21
926,11966.39
927,11966.62
928,11980.63
929,11979.69
930,11954.7
931,11916.01
932,11874.52
933,11835.39
934,11798.27
935,11762.65
936,11729.75
937,11702.42
938,11683.21
939,11668.09
940,11647.04
941,11610.67
942,11565.46
943,11531.9
944,11529.46
945,11553.16
946,11577.16
947,11576.54
948,11550.5
949,11517.81
950,11496.75
951,11490
952,11488.13
953,11482.11
954,11472.18
955,11465.44
956,11468.05
957,11472.08
958,11459.85
959,11415.91
960,11353.16
961,11303.01
962,11293.51
963,11313.39
964,11327.41
965,11303.94
966,11249.44
967,11192.06
968,11157.71
969,11150.8
970,11164.34
971,11190.6
972,11216.05
973,11224.38
974,11202.25
975,11157.78
976,11108.62
977,11070.3
978,11044.07
979,11025.42
980,11010.06
981,10995.26
982,10978.89
983,10959.59
984,10940.34
985,10925.54
986,10918.53
987,10917.69
988,10919.94
989,10922.7
990,10925.62
991,10928.9
992,10930.84
993,10922.65
994,10893.9
995,10841.07
996,10783.33
997,10744.42
998,10736.95
999,10741.41
1000,10732.58
1001,10696.42
1002,10647.01
1003,10602.77
1004,10576.07
1005,10565.97
1006,10569.73
1007,10582.87
1008,10592.88
1009,10584.96
1010,10550.67
1011,10507.03
1012,10477.37
1013,10476.12
1014,10487.05
1015,10487.3
1016,10463.01
1017,10426.84
1018,10396.33
1019,10383.57
1020,10386.89
1021,10402.47
1022,10422.12
1023,10428.22
1024,10402.12
1025,10342.25
1026,10278.5
1027,10243.75
1028,10249.5
1029,10273.81
1030,10292.2
1031,10292.11
1032,10276.76
1033,10250.44
1034,10218.26
1035,10186.24
1036,10160.24
1037,10142.09
1038,10129.92
1039,10121.72
1040,10115.82
1041,10110.85
1042,10105.49
1043,10099.57
1044,10093.62
1045,10088.02
1046,10081.98
1047,10074.09
1048,10063
1049,10047.89
1050,10028.17
1051,10004.28
1052,9982.243
1053,9969.917
1054,9972.578
1055,9984.929
1056,9998.961
1057,10007.35
1058,10004.94
1059,9986.996
1060,9954.906
1061,9925.092
1062,9916.113
1063,9933.991
1064,9960.644
1065,9975.525
1066,9970.326
1067,9955.01
1068,9940.863
1069,9934.46
1070,9936.901
1071,9948.735
1072,9965.807
1073,9979.724
1074,9982.778
1075,9977.75
1076,9974.676
1077,9982.505
1078,9999.361
1079,10017.69
1080,10031.06
1081,10040.6
1082,10050.38
1083,10063.45
1084,10078.34
1085,10092.27
1086,10102.33
1087,10105.19
1088,10097.43
1089,10079.38
1090,10060.29
1091,10050.58
1092,10050.94
1093,10045.13
1094,10015.79
1095,9963.621
1096,9912.218
1097,9885.388
1098,9881.747
1099,9876.553
1100,9846.206
1101,9791.651
1102,9730.358
1103,9679.256
1104,9648.747
1105,9646.088
1106,9674.023
1107,9711.216
1108,9728.289
1109,9707.058
1110,9670.045
1111,9648.966
1112,9659.725
1113,9679.095
1114,9678.188
1115,9648.483
1116,9616.252
1117,9610.343
1118,9633.882
1119,9659.405
1120,9659.225
1121,9631.243
1122,9594.54
1123,9567.071
1124,9549.685
1125,9533.503
1126,9510.774
1127,9481.291
1128,9447.719
1129,9413.792
1130,9387.471
1131,9377.738
1132,9385.988
1133,9394.232
1134,9381.643
1135,9341.089
1136,9288.469
1137,9241.649
1138,9212.516
1139,9206.261
1140,9226.521
1141,9259.803
1142,9279.879
1143,9264.45
1144,9225.541
1145,9191.85
1146,9185.691
1147,9197.531
1148,9208.075
1149,9204.3
1150,9192.089
1151,9180.829
1152,9175.098
1153,9170.372
1154,9161.271
1155,9147.24
1156,9133.547
1157,9125.487
1158,9123.491
1159,9124.232
1160,9124.933
1161,9128.021
1162,9138.459
1163,9159.209
1164,9183.756
1165,9202.802
1166,9210.118
1167,9207.991
1168,9200.188
1169,9192.145
1170,9192.097
1171,9208.063
1172,9236.173
1173,9260.205
1174,9264.328
1175,9243.681
1176,9200.414
1177,9139.061
1178,9078.147
1179,9041.533
1180,9042.875
1181,9060.341
1182,9064.508
1183,9040.992
1184,9005.546
1185,8977.196
1186,8964.601
1187,8964.063
1188,8970.689
1189,8973.169
1190,8955.62
1191,8906.753
1192,8846.89
1193,8809.424
1194,8815.05
1195,8837.918
1196,8841.692
1197,8810.468
1198,8769.804
1199,8749.547
1200,8756.333
1201,8769.686
1202,8769.121
1203,8753.104
1204,8732.929
1205,8718.438
1206,8709.146
1207,8700.662
1208,8690.894
1209,8685.173
1210,8690.275
1211,8708.971
1212,8737.028
1213,8769.41
1214,8798.633
1215,8814.824
1216,8809.999
1217,8794.926
1218,8790.619
1219,8811.131
1220,8837.725
1221,8842.215
1222,8810.563
1223,8762.518
1224,8722.421
1225,8701.493
1226,8694.093
1227,8693.581
1228,8694.898
1229,8694.099
1230,8687.623
1231,8674.143
1232,8653.16
1233,8626.719
1234,8604.386
1235,8596.966
1236,8606.242
1237,8620.219
1238,8626.35
1239,8622.2
1240,8613.581
1241,8605.495
1242,8595.659
1243,8578.711
1244,8553.914
1245,8535.816
1246,8541.895
1247,8573.495
1248,8605.451
1249,8611.739
1250,8594.864
1251,8581.683
1252,8594.678
1253,8619.589
1254,8626.228
1255,8597.948
1256,8562.783
1257,8557.54
1258,8592.627
1259,8636.312
1260,8654.718
1261,8640.723
1262,8608.836
1263,8573.507
1264,8544.633
1265,8530.312
1266,8534.546
1267,8549.394
1268,8564.857
1269,8577.021
1270,8590.479
1271,8609.501
1272,8625.943
1273,8623.046
1274,8590.09
1275,8549.034
1276,8532.483
1277,8556.149
1278,8596.152
1279,8623.615
1280,8629.203
1281,8625.416
1282,8624.545
1283,8626.413
1284,8624.176
1285,8613.84
1286,8602.574
1287,8600.129
1288,8609.147
1289,8620.167
1290,8623.127
1291,8617.628
1292,8611.053
1293,8610.067
1294,8615.693
1295,8626.884
1296,8641.43
1297,8654.246
1298,8659.911
1299,8656.358
1300,8645.349
1301,8628.715
1302,8607.174
1303,8580.847
1304,8552.761
1305,8536.198
1306,8546.378
1307,8579.038
1308,8600.291
1309,8577.59
1310,8527.832
1311,8502.026
1312,8537.713
1313,8605.422
1314,8656.082
1315,8662.681
1316,8640.951
1317,8611.188
1318,8587.214
1319,8577.318
1320,8586.777
1321,8603.955
1322,8611.042
1323,8603.24
1324,8606.243
1325,8648.604
1326,8723.301
1327,8787.589
1328,8803.692
1329,8780.278
1330,8745.916
1331,8724.622
1332,8727.927
1333,8764.519
1334,8820.567
1335,8857.147
1336,8841.438
1337,8798.993
1338,8782.807
1339,8823.197
1340,8884.513
1341,8920.249
1342,8916.305
1343,8896.485
1344,8884.083
1345,8880.31
1346,8875.675
1347,8864.565
1348,8852.908
1349,8848.456
1350,8850.258
1351,8847.232
1352,8830.744
1353,8815.943
1354,8829.225
1355,8879.808
1356,8928.854
1357,8930.822
1358,8886.316
1359,8846.402
1360,8856.062
1361,8897.874
1362,8927.372
1363,8919.411
1364,8897.589
1365,8892.001
1366,8909.917
1367,8936.381
1368,8957.518
1369,8971.797
1370,8982.301
1371,8990.388
1372,8993.755
1373,8990.147
1374,8985.918
1375,8994.486
1376,9024.993
1377,9064.678
1378,9094.239
1379,9103.811
1380,9099.644
1381,9089.616
1382,9082.051
1383,9085.574
1384,9104.147
1385,9124.604
1386,9130.078
1387,9114.103
1388,9083.78
1389,9047.279
1390,9013.865
1391,8993.345
1392,8988.848
1393,8986.009
1394,8968.345
1395,8935.189
1396,8900.887
1397,8878.436
1398,8870.154
1399,8874.706
1400,8886.971
1401,8895.046
1402,8887.538
1403,8867.675
1404,8848.234
1405,8840.056
1406,8846.616
1407,8869.531
1408,8901.485
1409,8924.621
1410,8924.941
1411,8919.13
1412,8936.572
1413,8987.969
1414,9044.288
1415,9073.316
1416,9070.767
1417,9053.101
1418,9035.872
1419,9029.018
1420,9040.864
1421,9069.753
1422,9101.357
1423,9121.334
1424,9121.224
1425,9095.167
1426,9047.016
1427,9001.314
1428,8983.725
1429,8997.625
1430,9030.215
1431,9068.74
1432,9102.083
1433,9119.595
1434,9114.778
1435,9085.965
1436,9035.017
1437,8983.934
1438,8962.318
1439,8981.088
1440,9016.823
1441,9044.107
1442,9056.442
1443,9058.796
1444,9054.765
1445,9043.448
1446,9023.576
1447,9002.562
1448,8995.811
1449,9013.143
1450,9037.404
1451,9044.26
1452,9032.839
1453,9034.087
1454,9074.66
1455,9134.236
1456,9172.313
1457,9167.74
1458,9137.721
1459,9103.703
1460,9083.855
1461,9094.327
1462,9138.496
1463,9183.58
1464,9192.363
1465,9164.646
1466,9132.341
1467,9121.069
1468,9126.301
1469,9135.986
1470,9142.309
1471,9142.407
1472,9135.623
1473,9132.192
1474,9145.915
1475,9172.54
1476,9179.775
1477,9140.238
1478,9084.479
1479,9070.13
1480,9121.13
1481,9192.865
1482,9235.829
1483,9238.377
1484,9211.771
1485,9172.373
1486,9148.763
1487,9168.607
1488,9216.312
1489,9243.558
1490,9218.216
1491,9163.877
1492,9114.375
1493,9080.465
1494,9051.713
1495,9021.699
1496,9003.309
1497,9013.615
1498,9050.903
1499,9093.024
1500,9119.394
1501,9122.277
1502,9098.252
1503,9060.897
1504,9045.196
1505,9077.812
1506,9130.439
1507,9156.255
1508,9144.795
1509,9137.449
1510,9170.349
1511,9219.812
1512,9238.993
1513,9211.496
1514,9168.991
1515,9144.729
1516,9152.398
1517,9197.033
1518,9266.282
1519,9318.378
1520,9316.502
1521,9284.778
1522,9275.247
1523,9308.329
1524,9347.522
1525,9355.458
1526,9336.36
1527,9314.407
1528,9303.515
1529,9298.453
1530,9293.231
1531,9292.597
1532,9306.486
1533,9336.01
1534,9365.977
1535,9381.319
1536,9382.682
1537,9378.303
1538,9374.354
1539,9373.185
1540,9375.165
1541,9368.452
1542,9335.747
1543,9282.704
1544,9254.51
1545,9291.245
1546,9366.803
1547,9426.322
1548,9443.723
1549,9439.347
1550,9435.421
1551,9438.626
1552,9449.388
1553,9466.458
1554,9486.169
1555,9503.764
1556,9509.392
1557,9491.698
1558,9453.071
1559,9413.711
1560,9391.61
1561,9387.508
1562,9396.794
1563,9415.129
1564,9438.483
1565,9461.875
1566,9476.377
1567,9473.07
1568,9465.728
1569,9489.804
1570,9564.444
1571,9649.837
1572,9695.913
1573,9691.254
1574,9655.045
1575,9611.558
1576,9596.432
1577,9642.974
1578,9733.937
1579,9819.832
1580,9869.596
1581,9892.976
1582,9903.372
1583,9900.258
1584,9876.356
1585,9839.228
1586,9821.056
1587,9847.697
1588,9891.466
1589,9905.327
1590,9878.997
1591,9848.492
1592,9845.45
1593,9868.74
1594,9908.111
1595,9951.44
1596,9984.851
1597,10001.19
1598,10014.53
1599,10041.56
1600,10079.62
1601,10112.96
1602,10133.09
1603,10147.91
1604,10166.64
1605,10191.51
1606,10221.37
1607,10251.8
1608,10273.46
1609,10282.35
1610,10303.83
1611,10370.85
1612,10469.96
1613,10540.08
1614,10542.84
1615,10522.02
1616,10533.16
1617,10565.54
1618,10563.04
1619,10498
1620,10404.27
1621,10318.63
1622,10242.42
1623,10161.65
1624,10075.33
1625,9999.943
1626,9950.359
1627,9929.242
1628,9935.29
1629,9955.322
1630,9966.146
1631,9954.745
1632,9934.61
1633,9921.387
1634,9913.199
1635,9899.291
1636,9875.456
1637,9847.435
1638,9822.121
1639,9807.867
1640,9813.015
1641,9836.88
1642,9870.733
1643,9902.33
1644,9911.18
1645,9879.77
1646,9828.438
1647,9796.411
1648,9794.202
1649,9790.438
1650,9762.46
1651,9740.839
1652,9767.699
1653,9832.968
1654,9884.18
1655,9889.997
1656,9870.225
1657,9848.358
1658,9823.038
1659,9782.615
1660,9734.948
1661,9711.553
1662,9733.821
1663,9782.744
1664,9831.522
1665,9865.512
1666,9877.942
1667,9872.463
1668,9870.43
1669,9887.771
1670,9903.771
1671,9888.569
1672,9858.009
1673,9867.843
1674,9936.957
1675,9994.481
1676,9971.096
1677,9900.291
1678,9858.06
1679,9872.586
1680,9917.645
1681,9966.831
1682,10002.45
1683,10010.91
1684,10002.07
1685,9998.244
1686,10008.84
1687,10025.05
1688,10035.35
1689,10023.27
1690,9974.851
1691,9919.491
1692,9914.098
1693,9970.75
1694,10027.65
1695,10032.93
1696,10009.66
1697,9999.382
1698,10011.87
1699,10033.67
1700,10050.32
1701,10046.55
1702,10014.06
1703,9979.219
1704,9976.783
1705,10007.49
1706,10045.58
1707,10072.14
1708,10082.85
1709,10076.75
1710,10061.82
1711,10049.04
1712,10051.89
1713,10085.6
1714,10141.24
1715,10163.96
1716,10114.12
1717,10053.08
1718,10066.73
1719,10141.19
1720,10187.1
1721,10163.13
1722,10117.66
1723,10097.58
1724,10100.11
1725,10109.63
1726,10125.77
1727,10158.63
1728,10206.28
1729,10247.08
1730,10261.34
1731,10244.13
1732,10196.04
1733,10137.72
1734,10101.4
1735,10094.25
1736,10089.16
1737,10068.73
1738,10054.97
1739,10073.37
1740,10112.55
1741,10143.61
1742,10155.56
1743,10157.31
1744,10162.66
1745,10194.87
1746,10269.19
1747,10342.71
1748,10354.06
1749,10304.37
1750,10247.55
1751,10215.19
1752,10194.33
1753,10171.47
1754,10151.3
1755,10142.73
1756,10146.76
1757,10159.46
1758,10175.04
1759,10185.33
1760,10189.19
1761,10206.15
1762,10253.78
1763,10309.98
1764,10337.54
1765,10327.15
1766,10294.68
1767,10261.42
1768,10257.16
1769,10298.75
1770,10344.87
1771,10344.73
1772,10307.03
1773,10273.76
1774,10256.92
1775,10232.54
1776,10193.64
1777,10180.15
1778,10226.38
1779,10296.19
1780,10333.36
1781,10336.41
1782,10342.46
1783,10365.11
1784,10383.21
1785,10376.17
1786,10333.24
1787,10252.1
1788,10173.14
1789,10151.03
1790,10192.8
1791,10267.25
1792,10345.79
1793,10405.79
1794,10432.14
1795,10432.41
1796,10417.79
1797,10393.01
1798,10360.73
1799,10334.47
1800,10336.51
1801,10373.04
1802,10424.31
1803,10470.47
1804,10498.83
1805,10501.65
1806,10494.78
1807,10501.18
1808,10507.62
1809,10473.71
1810,10405.41
1811,10376.84
1812,10425.4
1813,10471.33
1814,10434.66
1815,10348.75
1816,10283.1
1817,10266.84
1818,10301.89
1819,10373.92
1820,10449.55
1821,10501.22
1822,10517
1823,10492.56
1824,10447.17
1825,10404.93
1826,10375.64
1827,10361.95
1828,10369.44
1829,10406.04
1830,10453.96
1831,10452.98
1832,10377.61
1833,10319.35
1834,10365.58
1835,10452.11
1836,10470.48
1837,10426.97
1838,10400.03
1839,10417.88
1840,10451.38
1841,10478.27
1842,10495.59
1843,10503.05
1844,10501.89
1845,10495.45
1846,10498.4
1847,10526.95
1848,10559.02
1849,10547.58
1850,10499.48
1851,10485.06
1852,10530.16
1853,10565.09
1854,10537.8
1855,10497.34
1856,10502.33
1857,10533.57
1858,10545
1859,10526.38
1860,10491.25
1861,10464.85
1862,10483.97
1863,10540.08
1864,10544.46
1865,10454.17
1866,10384.36
1867,10442.05
1868,10545.76
1869,10570.15
1870,10530.24
1871,10510.35
1872,10516.89
1873,10491.39
1874,10433.77
1875,10424.47
1876,10496.06
1877,10566.65
1878,10570.03
1879,10546.98
1880,10550.51
1881,10567.62
1882,10564.66
1883,10540.09
1884,10511.07
1885,10497.29
1886,10519.8
1887,10568.93
1888,10593.05
1889,10562.87
1890,10502.7
1891,10440.98
1892,10397.08
1893,10385.29
1894,10402.52
1895,10439.57
1896,10484.64
1897,10523.98
1898,10536.21
1899,10495.91
1900,10434.25
1901,10445.97
1902,10547.97
1903,10619.99
1904,10584.79
1905,10507.56
1906,10460.45
1907,10456.59
1908,10492.59
1909,10551.22
1910,10608.55
1911,10626.23
1912,10563.83
1913,10468.48
1914,10451.38
1915,10509.45
1916,10512.62
1917,10434.91
1918,10424.05
1919,10540.5
1920,10614.07
1921,10522.82
1922,10405.16
1923,10406.93
1924,10456.71
1925,10440.81
1926,10400.84
1927,10433.14
1928,10515
1929,10557.41
1930,10549.28
1931,10542.76
1932,10553.57
1933,10555.08
1934,10537.5
1935,10519.69
1936,10509.84
1937,10489.26
1938,10446.19
1939,10397.92
1940,10363.91
1941,10352.17
1942,10363.09
1943,10370.8
1944,10348.16
1945,10324.49
1946,10346.96
1947,10381.05
1948,10349.57
1949,10274.24
1950,10251.12
1951,10289.95
1952,10312.66
1953,10314.68
1954,10391.22
1955,10538.61
1956,10576.34
1957,10440.88
1958,10358.39
1959,10467.9
1960,10558.49
1961,10446.53
1962,10268.34
1963,10196.4
1964,10231.44
1965,10321.03
1966,10395.26
1967,10388.33
1968,10319.4
1969,10246
1970,10207.84
1971,10230.19
1972,10285.66
1973,10310.82
1974,10278.28
1975,10195.15
1976,10121.39
1977,10168.34
1978,10304.79
1979,10315.94
1980,10138.56
1981,9961.282
1982,9920.221
1983,10014.23
1984,10184.43
1985,10277.57
1986,10200.68
1987,10053.91
1988,9952.612
1989,9960.324
1990,10084.97
1991,10164.17
1992,10061.66
1993,9935.098
1994,9971.398
1995,10083.45
1996,10122.03
1997,10104.77
1998,10103.19
1999,10121.83
2000,10136.36
2001,10125.53
2002,10073.29
2003,9998.891
2004,9938.672
2005,9895.156
2006,9849.381
2007,9784.64
2008,9691.595
2009,9646.261
2010,9779.571
2011,9996.206
2012,10016.31
2013,9859.404
2014,9826.246
2015,9942.454
2016,9942.563
2017,9784.667
2018,9690.975
2019,9737.06
2020,9803.471
2021,9829.601
2022,9846.917
2023,9857.223
2024,9813.165
2025,9724.938
2026,9692.589
2027,9741.79
2028,9770.645
2029,9743.997
2030,9754.624
2031,9816.634
2032,9788.585
2033,9635.003
2034,9538.001
2035,9593.475
2036,9694.484
2037,9737.334
2038,9667.603
2039,9496.807
2040,9354.307
2041,9328.652
2042,9399.336
2043,9508.183
2044,9547.853
2045,9480.025
2046,9417.814
2047,9429.006
2048,9452.62
2049,9442.838
2050,9415.663
2051,9388.642
2052,9367.577
2053,9352.64
2054,9335.784
2055,9322.09
2056,9343.199
2057,9402.408
2058,9445.038
2059,9429.627
2060,9350.478
2061,9255.9
2062,9278.852
2063,9419.316
2064,9446.984
2065,9281.698
2066,9110.755
2067,9044.915
2068,9046.141
2069,9044.412
2070,8945.495
2071,8794.258
2072,8812.556
2073,8989.887
2074,9028.281
2075,8903.002
2076,8905.687
2077,9061.291
2078,9110.407
2079,9005.811
2080,8908.88
2081,8874.55
2082,8857.988
2083,8811.575
2084,8696.193
2085,8580.366
2086,8593.88
2087,8695.9
2088,8746.464
2089,8704.484
2090,8590.39
2091,8465.252
2092,8402.744
2093,8423.025
2094,8507.938
2095,8547.996
2096,8440.188
2097,8296.481
2098,8260.368
2099,8303.731
2100,8353.704
2101,8348.408
2102,8258.606
2103,8150.364
2104,8080.359
2105,8030.395
2106,7990.554
2107,7996.059
2108,8033.793
2109,7991.614
2110,7889.931
2111,7965.488
2112,8193.84
2113,8199.955
2114,7958.779
2115,7833.36
2116,7888.351
2117,7915.151
2118,7860.851
2119,7789.074
2120,7708.803
2121,7603.063
2122,7523.078
2123,7530.855
2124,7547.544
2125,7478.462
2126,7417.105
2127,7463.656
2128,7527.888
2129,7521.417
2130,7492.069
2131,7470.949
2132,7396.377
2133,7269.483
2134,7221.426
2135,7256.144
2136,7191.9
2137,7037.08
2138,7004.468
2139,7074.952
2140,7047.824
2141,6949.491
2142,6930.141
2143,6934.211
2144,6837.265
2145,6704.485
2146,6646.271
2147,6670.633
2148,6737.385
2149,6742.091
2150,6657.795
2151,6659.009
2152,6771.363
2153,6732.98
2154,6521.854
2155,6433.131
2156,6506.805
2157,6540.291
2158,6440.176
2159,6212.288
2160,6023.72
2161,6065.014
2162,6225.489
2163,6318.36
2164,6263.706
2165,6079.364
2166,5972.53
2167,6022.865
2168,6020.601
2169,5883.792
2170,5735.092
2171,5628.465
2172,5545.821
2173,5521.077
2174,5598.326
2175,5631.962
2176,5473.164
2177,5373.952
2178,5539.887
2179,5640.221
2180,5478.701
2181,5368.988
2182,5418.186
2183,5353.188
2184,5174.353
2185,5154.567
2186,5248.054
2187,5219.415
2188,5063.795
2189,4876.788
2190,4736.844
2191,4701.642
2192,4781.815
2193,4890.684
2194,4785.663
2195,4556.679
2196,4681.658
2197,4978.214
2198,4815.945
2199,4506.595
2200,4663.134
2201,4832.958
2202,4521.46
2203,4234.314
2204,4314.952
2205,4388.015
2206,4297.255
2207,4258.286
2208,4272.457
2209,4182.365
2210,4119.206
2211,4272.921
2212,4389.611
2213,4255.274
2214,4164.169
2215,4241.904
2216,4170.703
2217,3915.317
2218,3771.945
2219,3766.403
2220,3764.758
2221,3840.488
2222,4043.63
2223,4029.774
2224,3676.893
2225,3514.962
2226,3615.699
2227,3413.12
2228,3060.999
2229,3177.754
2230,3510.364
2231,3558.257
2232,3430.399
2233,3303.444
2234,3161.112
2235,3072.238
2236,3225.44
2237,3430.551
2238,3290.619
2239,3059.391
2240,3111.304
2241,3179.761
2242,3060.376
2243,2991.896
2244,3055.686
2245,3092.365
2246,3067.627
2247,3028.261
2248,2945.138
2249,2799.962
2250,2696.643
2251,2660.28
2252,2553.755
2253,2441.981
2254,2549.739
2255,2715.604
2256,2665.811
2257,2520.423
2258,2406.216
2259,2233.612
2260,2088.434
2261,2256.852
2262,2505.785
2263,2387.065
2264,2174.238
2265,2179.987
2266,2157.439
2267,2016.537
2268,2001.324
2269,2089.579
2270,2076.706
2271,1993.291
2272,1930.532
2273,1880.549
2274,1839.509
2275,1834.85
2276,1840.801
2277,1803.63
2278,1779.472
2279,1827.967
2280,1881.495
2281,1896.827
2282,1902.571
2283,1890.342
2284,1819.351
2285,1656.276
2286,1437.088
2287,1382.248
2288,1517.618
2289,1568.621
2290,1474.725
2291,1343.839
2292,1298.359
2293,1354.895
2294,1272.541
2295,1085.243
2296,1150.3
2297,1368.028
2298,1434.291
2299,1344.859
2300,1212.699
