400,62006.82
401,61947.46
402,61889.21
403,61830.66
404,61771.13
405,61709.57
406,61643.13
407,61568.46
408,61482.85
409,61393.26
410,61314.11
411,61259.8
412,61234.31
413,61221.25
414,61202.07
415,61162.84
416,61114.28
417,61075.25
418,61063.07
419,61069.86
420,61066.38
421,61022.97
422,60930.02
423,60819.87
424,60729.97
425,60690.49
426,60690.64
427,60705.28
428,60710
429,60692.48
430,60651.06
431,60584.41
432,60490.93
433,60368.4
434,60214.54
435,60031.41
436,59845.86
437,59693.29
438,59606.56
439,59576.3
440,59556.86
441,59501.85
442,59390.38
443,59253.16
444,59127.06
445,59039.38
446,58968.13
447,58875.36
448,58726.48
449,58536.5
450,58359.44
451,58249.69
452,58224.95
453,58236.24
454,58227.83
455,58153.95
456,58013.15
457,57816.5
458,57576.91
459,57330.84
460,57130.73
461,57028.29
462,57029.03
463,57067.86
464,57074.11
465,56997.6
466,56862.31
467,56709.03
468,56574.79
469,56463.03
470,56358.76
471,56247.08
472,56120.03
473,55978.07
474,55822.2
475,55658.18
476,55505.16
477,55384.41
478,55312.91
479,55278.55
480,55257.34
481,55225.94
482,55172.91
483,55097.7
484,55000.16
485,54882.59
486,54752.18
487,54616.64
488,54483.16
489,54356.38
490,54240.31
491,54138.48
492,54049.95
493,53970.84
494,53897.17
495,53821.76
496,53733.05
497,53619.23
498,53476.15
499,53322.26
500,53180.12
501,53068.99
502,52985.84
503,52918.16
504,52853.92
505,52788.59
506,52724.38
507,52663.63
508,52603.1
509,52529.18
510,52427.23
511,52288.59
512,52128.57
513,51968.47
514,51827.82
515,51710.48
516,51611.73
517,51526.81
518,51451.6
519,51382.63
520,51316.5
521,51249.36
522,51176.38
523,51092.58
524,50994.99
525,50890.17
526,50787.57
527,50694.99
528,50601.84
529,50485.98
530,50325.88
531,50124.24
532,49913.86
533,49729.25
534,49594.99
535,49511.41
536,49475.11
537,49476.93
538,49476.96
539,49425.5
540,49278.72
541,49061.41
542,48843.27
543,48693.1
544,48630.43
545,48613
546,48594.81
547,48544.65
548,48467.16
549,48372.33
550,48269.23
551,48162.47
552,48055.25
553,47950.29
554,47845.88
555,47737.52
556,47621.02
557,47502.04
558,47397.62
559,47325.25
560,47289.2
561,47264.98
562,47224.51
563,47144.41
564,47021.17
565,46856.62
566,46655.54
567,46449.08
568,46282.03
569,46196.69
570,46184.8
571,46189.88
572,46154.19
573,46056.16
574,45936.88
575,45843.45
576,45803.51
577,45781.29
578,45728.26
579,45606.33
580,45443.19
581,45292.34
582,45202.63
583,45163.46
584,45121.54
585,45024.19
586,44864.74
587,44694.7
588,44568.92
589,44511.98
590,44480.26
591,44420.99
592,44297.08
593,44136.84
594,43985.63
595,43883.23
596,43826.07
597,43789.64
598,43750.19
599,43697.1
600,43630.82
601,43552.18
602,43463.11
603,43367.22
604,43268.18
605,43166.01
606,43051.48
607,42914
608,42749.24
609,42581.36
610,42442.52
611,42360.64
612,42328.63
613,42321.83
614,42316.13
615,42296.87
616,42257.44
617,42191.67
618,42100.76
619,41996.3
620,41890.59
621,41792.42
622,41702.27
623,41619.41
624,41540.52
625,41451.34
626,41334.86
627,41179.34
628,41011.24
629,40874.05
630,40807.41
631,40798.62
632,40796.43
633,40750.16
634,40648.84
635,40528.66
636,40428.18
637,40366.29
638,40323.95
639,40277.96
640,40209.59
641,40114.23
642,39990.07
643,39839.96
644,39691.79
645,39581.83
646,39540.65
647,39546.7
648,39549.8
649,39502.27
650,39401.94
651,39286.1
652,39192.56
653,39132.76
654,39082.58
655,39015.6
656,38921.14
657,38821.81
658,38744.34
659,38704.02
660,38677.49
661,38633.22
662,38546.88
663,38433.39
664,38321.22
665,38235.95
666,38177.8
667,38133.18
668,38088.5
669,38030.79
670,37947.61
671,37827.2
672,37679.8
673,37542.95
674,37455.46
675,37426.69
676,37410.95
677,37356.7
678,37235.55
679,37085.25
680,36955.23
681,36881.62
682,36841.79
683,36796.69
684,36713.94
685,36607.16
686,36509.73
687,36451.24
688,36418.82
689,36372.41
690,36273.78
691,36127.16
692,35976.47
693,35866.16
694,35809.02
695,35775.05
696,35731.48
697,35659.51
698,35567.5
699,35466.91
700,35370.63
701,35295.59
702,35259.43
703,35270.59
704,35298.24
705,35301.14
706,35244.51
707,35134.5
708,34993.48
709,34843.95
710,34710.92
711,34620.66
712,34596.47
713,34615.18
714,34616.41
715,34541.27
716,34393.39
717,34246.05
718,34174.88
719,34197.47
720,34241.83
721,34228.87
722,34119.97
723,33963.52
724,33818.97
725,33726.81
726,33670.38
727,33622.29
728,33560.3
729,33484
730,33398.88
731,33310.66
732,33226.97
733,33156.08
734,33104.62
735,33064.95
736,33021.98
737,32961.48
738,32879.65
739,32780.12
740,32667.02
741,32552.12
742,32454.37
743,32392.27
744,32361.7
745,32330.45
746,32265.09
747,32159.96
748,32054.98
749,31994
750,31998.68
751,32042.48
752,32092.63
753,32120.14
754,32106.77
755,32036.28
756,31903.96
757,31750.16
758,31626.07
759,31570.6
760,31559.16
761,31546.5
762,31493.5
763,31403.06
764,31296.13
765,31192.2
766,31096.82
767,31007.83
768,30923.22
769,30844.57
770,30775.99
771,30721.13
772,30674.3
773,30621.43
774,30548.73
775,30457.41
776,30365.64
777,30292.07
778,30240.63
779,30194.49
780,30135.47
781,30062.29
782,30003.33
783,29989.79
784,30025.45
785,30053.64
786,30009.91
787,29864.44
788,29683
789,29547.48
790,29511.33
791,29529.78
792,29536.88
793,29482.91
794,29388.07
795,29291.52
796,29223.86
797,29169.77
798,29098.4
799,28986.79
800,28864.96
801,28784.92
802,28789.17
803,28840.59
804,28861.8
805,28783.43
806,28621.81
807,28445.34
808,28319.03
809,28254.95
810,28226.89
811,28208.44
812,28183.82
813,28146.28
814,28089.78
815,28016.64
816,27937.63
817,27863.63
818,27798.99
819,27740.3
820,27683.83
821,27628.67
822,27577.84
823,27534.58
824,27499.88
825,27471.12
826,27445.38
827,27417.33
828,27377.17
829,27314.78
830,27228.11
831,27132.51
832,27045.49
833,26978.34
834,26927.13
835,26885.63
836,26846.41
837,26798.52
838,26730.45
839,26639.12
840,26549.03
841,26490.13
842,26478.15
843,26476.06
844,26434.71
845,26321.87
846,26176.36
847,26055.7
848,26004.02
849,26002.48
850,26013.47
851,26004.29
852,25968.04
853,25906.61
854,25823.54
855,25732.97
856,25652.91
857,25597.92
858,25559.44
859,25519.34
860,25462.66
861,25398.25
862,25345.85
863,25322.29
864,25320.33
865,25320.74
866,25305.32
867,25265.45
868,25197.73
869,25100.77
870,24993.04
871,24904.61
872,24862.31
873,24855.84
874,24851.54
875,24818.04
876,24754.83
877,24682.15
878,24619.76
879,24576.63
880,24554.04
881,24552.36
882,24561.55
883,24563.72
884,24542.16
885,24500.23
886,24457.34
887,24431.96
888,24419.89
889,24398.07
890,24344.46
891,24264.57
892,24187.88
893,24143.15
894,24132.12
895,24132.09
896,24120.28
897,24087.48
898,24037.24
899,23973.73
900,23905.07
901,23843.11
902,23799.3
903,23773.51
904,23754.24
905,23729.97
906,23699.03
907,23669.59
908,23649.84
909,23639.03
910,23627.31
911,23604.58
912,23563.43
913,23499.18
914,23407.98
915,23302.12
916,23210.56
917,23161.53
918,23149.39
919,23133.64
920,23073.94
921,22970.28
922,22863.94
923,22796.42
924,22771.92
925,22756.61
926,22716.25
927,22642.86
928,22554.89
929,22471.53
930,22403.5
931,22353.19
932,22322.29
933,22305.91
934,22292.74
935,22271.67
936,22239.89
937,22202.51
938,22164.61
939,22125.95
940,22081.36
941,22025.92
942,21962.29
943,21899.8
944,21847.64
945,21808.93
946,21781.61
947,21763.27
948,21748.34
949,21728.69
950,21696.91
951,21657.15
952,21622.54
953,21605.25
954,21601.36
955,21595.11
956,21571.72
957,21532.15
958,21488.31
959,21451.34
960,21421.42
961,21391.55
962,21355.65
963,21318.73
964,21292.59
965,21287.31
966,21295.45
967,21299.58
968,21283.83
969,21246.53
970,21193.54
971,21131.31
972,21070.6
973,21024.28
974,21002.29
975,20993.53
976,20977.49
977,20936.96
978,20876.5
979,20809.53
980,20748.76
981,20702.95
982,20679.39
983,20682.12
984,20697.95
985,20708.01
986,20696.58
987,20662.71
988,20609.78
989,20543.97
990,20483.1
991,20448.05
992,20449.83
993,20462.77
994,20452.74
995,20397.12
996,20311.02
997,20217.24
998,20135.19
999,20074.63
1000,20043.49
1001,20040.9
1002,20043.52
1003,20024.69
1004,19974.73
1005,19921.62
1006,19898.32
1007,19925.31
1008,19966.05
1009,19967.6
1010,19895.7
1011,19790.47
1012,19710.54
1013,19695.54
1014,19719.56
1015,19742.66
1016,19736.73
1017,19708.84
1018,19672.5
1019,19635.92
1020,19593.79
1021,19538.73
1022,19472.18
1023,19414.62
1024,19388.85
1025,19400.69
1026,19424.72
1027,19432.44
1028,19411.34
1029,19373.81
1030,19334.25
1031,19301.15
1032,19275.13
1033,19256.23
1034,19243.15
1035,19232.99
1036,19222.8
1037,19209.3
1038,19188.89
1039,19158.38
1040,19120.18
1041,19081.12
1042,19047.82
1043,19023.87
1044,19010.88
1045,19009.67
1046,19014.18
1047,19014.85
1048,19003.86
1049,18985.48
1050,18969.05
1051,18961.55
1052,18957.74
1053,18948.36
1054,18927.53
1055,18903.35
1056,18887.54
1057,18887.13
1058,18894.39
1059,18898.67
1060,18892.38
1061,18875.41
1062,18848.79
1063,18814.35
1064,18775.34
1065,18735.2
1066,18698.25
1067,18670.1
1068,18656.32
1069,18657.99
1070,18670.97
1071,18690.8
1072,18711.87
1073,18727.56
1074,18732.09
1075,18730.67
1076,18736.08
1077,18759.76
1078,18799.62
1079,18846.48
1080,18893.26
1081,18946.24
1082,19016.98
1083,19110.47
1084,19201.6
1085,19256.7
1086,19255.95
1087,19225.09
1088,19199.1
1089,19197.13
1090,19200.69
1091,19185.99
1092,19141.21
1093,19075.2
1094,18998.84
1095,18921.27
1096,18849.52
1097,18790
1098,18739.4
1099,18685.43
1100,18616.97
1101,18541.06
1102,18477.01
1103,18441.61
1104,18429.92
1105,18426.62
1106,18418.89
1107,18407.7
1108,18398.62
1109,18395.8
1110,18398.21
1111,18403.61
1112,18409.32
1113,18411.58
1114,18406.47
1115,18392.61
1116,18372.96
1117,18350.87
1118,18329.38
1119,18311.16
1120,18298.33
1121,18284.11
1122,18254.38
1123,18197.07
1124,18122.26
1125,18052.63
1126,18005.91
1127,17968.64
1128,17915.51
1129,17831.22
1130,17740.04
1131,17675.99
1132,17654.19
1133,17641.66
1134,17598.27
1135,17513.91
1136,17428.9
1137,17387.01
1138,17392.82
1139,17407.14
1140,17391.33
1141,17346.59
1142,17303.88
1143,17291.05
1144,17305.38
1145,17329.3
1146,17346.02
1147,17343.09
1148,17309.42
1149,17243.72
1150,17174.35
1151,17135.05
1152,17139.75
1153,17164.99
1154,17183.58
1155,17181.07
1156,17158.47
1157,17118.22
1158,17070.9
1159,17033.37
1160,17019.96
1161,17023.38
1162,17025.78
1163,17012.99
1164,16988.24
1165,16959.93
1166,16936.44
1167,16926.25
1168,16937.71
1169,16968.38
1170,16997.72
1171,17004.14
1172,16983.41
1173,16949.25
1174,16915.22
1175,16883.34
1176,16848.22
1177,16806.31
1178,16765.72
1179,16739.05
1180,16731.48
1181,16722.26
1182,16685.21
1183,16614.94
1184,16547.77
1185,16523.98
1186,16550.39
1187,16594.04
1188,16621.2
1189,16619.41
1190,16591.38
1191,16541.63
1192,16485.2
1193,16441.44
1194,16423.26
1195,16420.05
1196,16415.85
1197,16399.06
1198,16366.96
1199,16318.24
1200,16262.5
1201,16222.02
1202,16217.5
1203,16240.66
1204,16263.68
1205,16263.49
1206,16248.75
1207,16240.07
1208,16249.68
1209,16262.7
1210,16258.99
1211,16233.76
1212,16209
1213,16208.39
1214,16233.38
1215,16263.7
1216,16280.22
1217,16283.75
1218,16285.98
1219,16296.3
1220,16312.83
1221,16330.43
1222,16344.71
1223,16352.99
1224,16352.82
1225,16339.99
1226,16308.07
1227,16251.55
1228,16179.25
1229,16110.04
1230,16062.25
1231,16049.41
1232,16083.31
1233,16161.73
1234,16241.01
1235,16270.43
1236,16232.23
1237,16159
1238,16086.8
1239,16038.3
1240,16025.24
1241,16054.69
1242,16103.35
1243,16135.05
1244,16125.31
1245,16088.35
1246,16046.25
1247,16014.59
1248,15998.25
1249,16000.66
1250,16016.51
1251,16033.16
1252,16039.87
1253,16041.57
1254,16049.96
1255,16070.85
1256,16090.64
1257,16091.94
1258,16070.9
1259,16045.26
1260,16033.71
1261,16039.24
1262,16052.07
1263,16063.03
1264,16069.13
1265,16069.86
1266,16065
1267,16055.16
1268,16041.15
1269,16026.16
1270,16016.63
1271,16018.33
1272,16024.42
1273,16019.34
1274,15992.05
1275,15956.19
1276,15933.47
1277,15936.54
1278,15956.85
1279,15982.98
1280,16008.13
1281,16030.67
1282,16048.62
1283,16054.19
1284,16036.53
1285,15993.68
1286,15957.8
1287,15968.84
1288,16033.52
1289,16101.91
1290,16121.63
1291,16090.22
1292,16045.51
1293,16020.81
1294,16015.93
1295,16018.32
1296,16020.2
1297,16025.73
1298,16040.52
1299,16058.62
1300,16060.9
1301,16031.32
1302,15987.62
1303,15965.19
1304,15984.95
1305,16016.03
1306,16016.6
1307,15975.35
1308,15927.34
1309,15909.09
1310,15925.19
1311,15958.21
1312,15991.93
1313,16018.04
1314,16030.59
1315,16029.63
1316,16026.9
1317,16035.12
1318,16060.38
1319,16103.08
1320,16160.22
1321,16209.42
1322,16221.27
1323,16187.17
1324,16147.28
1325,16147.14
1326,16194.67
1327,16259.88
1328,16313.7
1329,16345.1
1330,16350.84
1331,16335.66
1332,16325.63
1333,16349.36
1334,16405.56
1335,16459.66
1336,16479.95
1337,16471.38
1338,16456.11
1339,16450.61
1340,16454.57
1341,16464.5
1342,16471.74
1343,16461.6
1344,16422.93
1345,16376.03
1346,16356.54
1347,16382.75
1348,16421.97
1349,16433.33
1350,16410.65
1351,16388.12
1352,16396.46
1353,16420.78
1354,16424.62
1355,16390.1
1356,16351.6
1357,16351.18
1358,16393.04
1359,16439.96
1360,16457.89
1361,16451.04
1362,16440.2
1363,16442.29
1364,16464.33
1365,16511.11
1366,16571.99
1367,16621.32
1368,16638.23
1369,16635.21
1370,16637.18
1371,16658.65
1372,16691.99
1373,16727.2
1374,16761.9
1375,16800.04
1376,16842.49
1377,16874.49
1378,16876.77
1379,16846.19
1380,16807.24
1381,16785.26
1382,16783.03
1383,16788.7
1384,16792.71
1385,16795.22
1386,16798.42
1387,16798.06
1388,16781.54
1389,16739.13
1390,16689.11
1391,16663.44
1392,16675.68
1393,16690.96
1394,16668.33
1395,16605.2
1396,16535.46
1397,16489.23
1398,16468.09
1399,16463.9
1400,16467.37
1401,16467.13
1402,16452.8
1403,16429.1
1404,16410.58
1405,16407.04
1406,16411.15
1407,16412.11
1408,16407.41
1409,16404.37
1410,16410.21
1411,16427.47
1412,16456.75
1413,16496.06
1414,16538.09
1415,16575.01
1416,16602.02
1417,16616.59
1418,16618.9
1419,16619.5
1420,16631.17
1421,16655.68
1422,16680.85
1423,16694.48
1424,16690.83
1425,16667
1426,16627.87
1427,16594.88
1428,16589.8
1429,16608.66
1430,16628.76
1431,16631.29
1432,16613.17
1433,16575.45
1434,16535.71
1435,16530.69
1436,16587.5
1437,16666.19
1438,16701.41
1439,16667.67
1440,16612.96
1441,16589.05
1442,16603.14
1443,16635.29
1444,16668.33
1445,16694.26
1446,16707.12
1447,16708.52
1448,16707.1
1449,16709.67
1450,16713.63
1451,16713.82
1452,16711.01
1453,16714
1454,16729.83
1455,16748.92
1456,16754.59
1457,16743.66
1458,16739.65
1459,16766.46
1460,16817.19
1461,16865.66
1462,16894.08
1463,16909.37
1464,16922.4
1465,16936.19
1466,16946.96
1467,16950.85
1468,16944.74
1469,16926.17
1470,16908.63
1471,16924.32
1472,16993.81
1473,17065.45
1474,17063.06
1475,16974.35
1476,16886.33
1477,16881.91
1478,16942.8
1479,17003.3
1480,17024.25
1481,17020.85
1482,17013.6
1483,17008.89
1484,17004.55
1485,16994.85
1486,16965.1
1487,16901.76
1488,16829.18
1489,16800.37
1490,16843.92
1491,16906.46
1492,16920.52
1493,16874.37
1494,16807.49
1495,16756.59
1496,16739.32
1497,16767.45
1498,16822.69
1499,16853.99
1500,16823.93
1501,16769.09
1502,16747.43
1503,16781.19
1504,16847.56
1505,16920.26
1506,16970.13
1507,16967.54
1508,16915.86
1509,16865.38
1510,16861.91
1511,16898.61
1512,16947.93
1513,16987.64
1514,17004.08
1515,16989.32
1516,16971.23
1517,16992.79
1518,17058.04
1519,17104.89
1520,17076.97
1521,17012.55
1522,16993.27
1523,17049.94
1524,17121.92
1525,17147.55
1526,17135.14
1527,17126.56
1528,17143.27
1529,17168.75
1530,17184.99
1531,17195.38
1532,17213.73
1533,17242.99
1534,17266
1535,17266
1536,17247.43
1537,17224.95
1538,17209.86
1539,17207.13
1540,17218.96
1541,17231.03
1542,17221.51
1543,17188.36
1544,17163.7
1545,17178.19
1546,17226.67
1547,17288.25
1548,17344.2
1549,17379.38
1550,17383.93
1551,17380.66
1552,17405.05
1553,17462.74
1554,17515.8
1555,17528.89
1556,17502.19
1557,17448.95
1558,17394.49
1559,17379.69
1560,17430.35
1561,17491.31
1562,17484.88
1563,17413.62
1564,17370.5
1565,17425.97
1566,17535.14
1567,17624.94
1568,17668.08
1569,17681.01
1570,17680.84
1571,17680.98
1572,17693.24
1573,17716.4
1574,17738.96
1575,17756.03
1576,17781.68
1577,17831.26
1578,17897.21
1579,17957.4
1580,18002.1
1581,18048.73
1582,18113.76
1583,18175.3
1584,18192.71
1585,18157.38
1586,18114.1
1587,18106.76
1588,18142.15
1589,18212.45
1590,18288.65
1591,18315.26
1592,18261.39
1593,18212.63
1594,18280.5
1595,18444.1
1596,18558.33
1597,18533.29
1598,18466.47
1599,18482.13
1600,18580.38
1601,18677.07
1602,18718.17
1603,18718.71
1604,18703.21
1605,18699.43
1606,18736.24
1607,18814.64
1608,18893.92
1609,18938.3
1610,18955.89
1611,18968.48
1612,18987.67
1613,19014.67
1614,19046.21
1615,19065.91
1616,19056.36
1617,19021.95
1618,18982.06
1619,18951.65
1620,18935.7
1621,18935.44
1622,18933.86
1623,18906.14
1624,18840.83
1625,18744.32
1626,18629.85
1627,18534.16
1628,18497.4
1629,18506.84
1630,18505.24
1631,18456.21
1632,18379.69
1633,18303.38
1634,18245.71
1635,18220.19
1636,18227.36
1637,18248.47
1638,18265.96
1639,18275.85
1640,18277.94
1641,18269.04
1642,18243.26
1643,18203.7
1644,18177.04
1645,18188.91
1646,18222.56
1647,18239.76
1648,18219.58
1649,18166.45
1650,18092.47
1651,18034.58
1652,18033.99
1653,18087.48
1654,18155.73
1655,18208.35
1656,18237.9
1657,18241.14
1658,18222.65
1659,18190.46
1660,18153.22
1661,18120.4
1662,18100.48
1663,18098.35
1664,18117.02
1665,18147.04
1666,18171.07
1667,18181.64
1668,18188.57
1669,18200.22
1670,18208.79
1671,18202.33
1672,18185.78
1673,18178.92
1674,18197.1
1675,18244.02
1676,18316.2
1677,18371.61
1678,18353.81
1679,18271.96
1680,18209.65
1681,18223.48
1682,18274.83
1683,18311.65
1684,18327.32
1685,18339.68
1686,18357.54
1687,18376.8
1688,18391.07
1689,18388.91
1690,18360.29
1691,18325.38
1692,18323.5
1693,18361.04
1694,18390.11
1695,18372.31
1696,18333.99
1697,18317.71
1698,18341.55
1699,18405.5
1700,18486.52
1701,18520.79
1702,18464.99
1703,18397.33
1704,18424.27
1705,18515.67
1706,18535.37
1707,18434.72
1708,18337.33
1709,18354.99
1710,18440.41
1711,18499.93
1712,18502.68
1713,18467.46
1714,18419.38
1715,18392.69
1716,18411.63
1717,18445.25
1718,18449.81
1719,18445.6
1720,18500.98
1721,18620.03
1722,18689.54
1723,18626.08
1724,18537.64
1725,18572.15
1726,18687.65
1727,18711.89
1728,18598.16
1729,18505.38
1730,18554.18
1731,18640.33
1732,18619.21
1733,18507.08
1734,18416
1735,18413.73
1736,18505.69
1737,18667.04
1738,18790.51
1739,18771.59
1740,18667.79
1741,18612.76
1742,18641.32
1743,18678.7
1744,18672.24
1745,18638.84
1746,18605.77
1747,18598.45
1748,18639.18
1749,18706.58
1750,18742.68
1751,18729.42
1752,18724.8
1753,18768.97
1754,18789.33
1755,18697.09
1756,18560.77
1757,18542.21
1758,18656.84
1759,18725.67
1760,18643.25
1761,18556.28
1762,18621.77
1763,18753.75
1764,18773.92
1765,18685.4
1766,18653.15
1767,18742.45
1768,18820.19
1769,18776.81
1770,18694.28
1771,18691.54
1772,18752.97
1773,18787.11
1774,18757.37
1775,18693.22
1776,18629.75
1777,18606.21
1778,18651.55
1779,18734.02
1780,18801.92
1781,18815.73
1782,18745.67
1783,18618.74
1784,18542.65
1785,18583.26
1786,18663.71
1787,18693.95
1788,18670.47
1789,18624.78
1790,18597.26
1791,18634.64
1792,18736.97
1793,18830.38
1794,18857.92
1795,18838.31
1796,18803.7
1797,18773.79
1798,18762.4
1799,18771.29
1800,18792.26
1801,18816.38
1802,18833.96
1803,18836.8
1804,18821.55
1805,18788.88
1806,18759.44
1807,18761.06
1808,18808.19
1809,18904.15
1810,19014.92
1811,19053.02
1812,18974.39
1813,18867.87
1814,18824.91
1815,18822.21
1816,18802.45
1817,18779.61
1818,18813.24
1819,18903.8
1820,18979.46
1821,18994.57
1822,18972.08
1823,18939.92
1824,18907.32
1825,18878.07
1826,18852.05
1827,18827.4
1828,18808.1
1829,18803.52
1830,18826.38
1831,18894.46
1832,18994.65
1833,19019.49
1834,18880.74
1835,18704.21
1836,18674.3
1837,18765.55
1838,18821.63
1839,18804.46
1840,18810.21
1841,18874.3
1842,18900.29
1843,18823.88
1844,18747.37
1845,18781.85
1846,18856.64
1847,18842.12
1848,18788.52
1849,18865.3
1850,19056.02
1851,19124.5
1852,18976.44
1853,18824.52
1854,18836.83
1855,18899.19
1856,18865.12
1857,18770.14
1858,18714
1859,18728.65
1860,18801.34
1861,18904.4
1862,18995.08
1863,19033.1
1864,18983.94
1865,18851.15
1866,18748.06
1867,18771.09
1868,18828.68
1869,18790.04
1870,18705.35
1871,18711.24
1872,18793.32
1873,18811.67
1874,18739.6
1875,18706.82
1876,18779.82
1877,18866.37
1878,18884.11
1879,18857.58
1880,18827.32
1881,18790.66
1882,18731.51
1883,18655.59
1884,18582.55
1885,18556.13
1886,18639.17
1887,18794.53
1888,18847.98
1889,18729.68
1890,18611.24
1891,18627.27
1892,18686.64
1893,18680.57
1894,18656.96
1895,18701.27
1896,18774.39
1897,18779.8
1898,18718.89
1899,18667.53
1900,18661.48
1901,18688.32
1902,18723.41
1903,18726.1
1904,18678.23
1905,18622.46
1906,18597.86
1907,18592.86
1908,18589.28
1909,18601.64
1910,18649.46
1911,18688.21
1912,18645.12
1913,18546.25
1914,18492.38
1915,18515.98
1916,18571.45
1917,18607.73
1918,18571.83
1919,18456.33
1920,18356.65
1921,18356.35
1922,18453.9
1923,18611.51
1924,18701.65
1925,18605.63
1926,18453.8
1927,18457.5
1928,18564.84
1929,18578.33
1930,18488.91
1931,18439.52
1932,18466.27
1933,18482.27
1934,18456.38
1935,18451.13
1936,18482.1
1937,18452.27
1938,18318.77
1939,18230.29
1940,18308.54
1941,18438.57
1942,18472.9
1943,18400.14
1944,18263.52
1945,18173.7
1946,18248.52
1947,18357.53
1948,18244.07
1949,18003.69
1950,17994.28
1951,18215.38
1952,18302.6
1953,18161.26
1954,18068.48
1955,18145.01
1956,18206.99
1957,18148.09
1958,18093.18
1959,18135.65
1960,18196.18
1961,18188.39
1962,18109.21
1963,17988.77
1964,17924.1
1965,17999.94
1966,18106.6
1967,18084.57
1968,17956.06
1969,17824.54
1970,17746.7
1971,17748.06
1972,17806.45
1973,17866.64
1974,17894.44
1975,17876.07
1976,17829.42
1977,17804.15
1978,17800.27
1979,17753.18
1980,17663.52
1981,17638.19
1982,17713.33
1983,17777.79
1984,17755.67
1985,17684.39
1986,17615.29
1987,17596.23
1988,17642.76
1989,17670.34
1990,17619.79
1991,17600.72
1992,17704.95
1993,17770.15
1994,17624.77
1995,17418.44
1996,17362.47
1997,17403.83
1998,17405.34
1999,17345.04
2000,17256.24
2001,17212.85
2002,17291.33
2003,17393.96
2004,17344.37
2005,17195.63
2006,17135.11
2007,17182.66
2008,17240.45
2009,17258.03
2010,17226.93
2011,17184.85
2012,17204.67
2013,17272.54
2014,17293.03
2015,17233.55
2016,17131.1
2017,17041.03
2018,17032.46
2019,17065.14
2020,16969.3
2021,16770.88
2022,16757.3
2023,16965.75
2024,17061.72
2025,16908.03
2026,16701.99
2027,16600.04
2028,16649.82
2029,16784.89
2030,16768.34
2031,16546.13
2032,16406.69
2033,16493.72
2034,16629.48
2035,16676.1
2036,16632.76
2037,16529.5
2038,16426.69
2039,16370.91
2040,16374.62
2041,16426.46
2042,16475.58
2043,16476.44
2044,16403.93
2045,16255.36
2046,16068.71
2047,15901.69
2048,15841.27
2049,15910.37
2050,15996.03
2051,16012.14
2052,15958.81
2053,15861.52
2054,15775.17
2055,15740.23
2056,15762.25
2057,15793.51
2058,15696.34
2059,15470.67
2060,15378.3
2061,15513.94
2062,15638.94
2063,15636.39
2064,15642.74
2065,15695.69
2066,15644
2067,15469.34
2068,15371.53
2069,15404.58
2070,15397.77
2071,15304.34
2072,15256.95
2073,15250.35
2074,15105.46
2075,14886.89
2076,14930
2077,15192.56
2078,15241.85
2079,14997.1
2080,14724.16
2081,14586.73
2082,14638.78
2083,14792.32
2084,14862.66
2085,14829.14
2086,14782.43
2087,14735.29
2088,14655.15
2089,14564.32
2090,14509.22
2091,14475.11
2092,14419.95
2093,14325.74
2094,14196.77
2095,14109.01
2096,14132.27
2097,14162.14
2098,14090.17
2099,14042.29
2100,14136.46
2101,14216.24
2102,14132.08
2103,13960.29
2104,13807.83
2105,13744.58
2106,13788.45
2107,13855.18
2108,13858.32
2109,13735.28
2110,13543.84
2111,13519.48
2112,13681.01
2113,13753.19
2114,13659.28
2115,13552.71
2116,13475.49
2117,13364.02
2118,13214.39
2119,13071.62
2120,13003.3
2121,13067.5
2122,13140.39
2123,13050.63
2124,12882.53
2125,12783.31
2126,12724.9
2127,12654.23
2128,12624.64
2129,12657.85
2130,12610.98
2131,12433.45
2132,12348.82
2133,12427.58
2134,12408.73
2135,12224.09
2136,12109.71
2137,12118.49
2138,12090.71
2139,11989.77
2140,11886.91
2141,11815.37
2142,11782.12
2143,11795.15
2144,11848.55
2145,11851.39
2146,11728.29
2147,11602.2
2148,11583.99
2149,11582.99
2150,11508.61
2151,11359.43
2152,11178.6
2153,11061.07
2154,11029.56
2155,11013.37
2156,10980.3
2157,10934.72
2158,10833.46
2159,10630.41
2160,10522.03
2161,10721.59
2162,10880.77
2163,10634.75
2164,10295.51
2165,10162.8
2166,10078.19
2167,9946.988
2168,9925.758
2169,10008.92
2170,9956.931
2171,9800.586
2172,9806.957
2173,9899.333
2174,9819.36
2175,9671.394
2176,9655.02
2177,9630.334
2178,9451.503
2179,9283.008
2180,9254.371
2181,9288.478
2182,9291.179
2183,9186.708
2184,9003.228
2185,8864.122
2186,8821.06
2187,8855.462
2188,8806.011
2189,8542.602
2190,8367.166
2191,8503.898
2192,8594.15
2193,8439.69
2194,8332.314
2195,8356.148
2196,8288.9
2197,8139.176
2198,8093.769
2199,8126.743
2200,8115.693
2201,8034.21
2202,7907.425
2203,7822.811
2204,7788.184
2205,7633.659
2206,7410.417
2207,7447.482
2208,7615.558
2209,7470.698
2210,7172.091
2211,7091.845
2212,7118.454
2213,7067.467
2214,6974.798
2215,6877.442
2216,6749.018
2217,6664.241
2218,6783.219
2219,6893.06
2220,6629.578
2221,6285.582
2222,6248.079
2223,6276.943
2224,6199.63
2225,6284.921
2226,6494.711
2227,6368.56
2228,6006.494
2229,5887.931
2230,5970.463
2231,6008.041
2232,5900.476
2233,5658.536
2234,5457.829
2235,5413.148
2236,5516.45
2237,5554.788
2238,5256.38
2239,5013.907
2240,5248.414
2241,5371.75
2242,5035.618
2243,4877.544
2244,5080.684
2245,5181.256
2246,5137.961
2247,5164.094
2248,5138.667
2249,4899.304
2250,4548.805
2251,4264.031
2252,4246.04
2253,4422.992
2254,4492.161
2255,4390.629
2256,4198.982
2257,4060.582
2258,4073.873
2259,4198.217
2260,4321.085
2261,4284.688
2262,4147.107
2263,4077.424
2264,4070.4
2265,4035.978
2266,3822.748
2267,3521.439
2268,3539.317
2269,3727.909
2270,3607.12
2271,3361.468
2272,3305.819
2273,3355.14
2274,3368.635
2275,3248.552
2276,3101.46
2277,3132.745
2278,3141.769
2279,2950.587
2280,2956.307
2281,3211.011
2282,3121.064
2283,2797.056
2284,2801.493
2285,2822.706
2286,2523.589
2287,2465.279
2288,2754.241
2289,2702.126
2290,2419.729
2291,2466.829
2292,2581.71
2293,2443.137
2294,2263.236
2295,2205.206
2296,2269.95
2297,2350.796
2298,2317.409
2299,2180.681
2300,2003.38
