400,50940.76
401,50971.55
402,50939.43
403,50880.14
404,50834.09
405,50830.57
406,50847.81
407,50849.35
408,50801.85
409,50716.21
410,50637.46
411,50610.93
412,50649.38
413,50702.52
414,50713.12
415,50638.41
416,50511.47
417,50390.44
418,50330.26
419,50335.94
420,50370.07
421,50394.17
422,50383.7
423,50343.27
424,50281.08
425,50204.97
426,50120.59
427,50032.78
428,49945.98
429,49857.22
430,49757.03
431,49635.8
432,49491.97
433,49341.12
434,49200.93
435,49086.13
436,48994.98
437,48920
438,48853.61
439,48786.55
440,48708.02
441,48607.31
442,48481.82
443,48345.39
444,48213.81
445,48099.27
446,47995.54
447,47890.37
448,47772.63
449,47646.75
450,47529.49
451,47437.68
452,47373.8
453,47314.16
454,47232.45
455,47108.63
456,46950.61
457,46774.14
458,46595.53
459,46438.64
460,46332.45
461,46305.2
462,46344.82
463,46377.54
464,46324.75
465,46139.97
466,45893.2
467,45680.65
468,45587.7
469,45601.48
470,45655.32
471,45683.35
472,45654.51
473,45580.14
474,45474.09
475,45350.44
476,45224.1
477,45110.07
478,45020.51
479,44948.89
480,44881
481,44803.23
482,44713.3
483,44619.3
484,44529.61
485,44448.62
486,44372.78
487,44297.63
488,44220.27
489,44144.88
490,44077.67
491,44023.68
492,43974.61
493,43913.57
494,43823.94
495,43704.5
496,43574.95
497,43456.38
498,43364.05
499,43296.04
500,43247.25
501,43210.41
502,43163.05
503,43076.34
504,42924.04
505,42727.06
506,42548.27
507,42451.27
508,42456.91
509,42507.4
510,42536.77
511,42494.45
512,42391.25
513,42253.38
514,42105.76
515,41962.51
516,41831.77
517,41721.59
518,41639.22
519,41591.1
520,41583.54
521,41608.34
522,41624.69
523,41587.44
524,41464.68
525,41288.03
526,41108.34
527,40972.56
528,40886.16
529,40828.43
530,40778.51
531,40722.94
532,40657.36
533,40578.04
534,40484.98
535,40387.6
536,40296.67
537,40219.84
538,40148.55
539,40068.98
540,39968.75
541,39852.2
542,39734.66
543,39631.16
544,39543
545,39454.17
546,39347.66
547,39218.65
548,39092.03
549,38997.03
550,38954.39
551,38942.48
552,38926.5
553,38874.96
554,38791.15
555,38699.71
556,38624.89
557,38573.06
558,38530.03
559,38480.53
560,38414.49
561,38332.91
562,38238.25
563,38134.96
564,38036.2
565,37957.36
566,37910.61
567,37879.84
568,37834.36
569,37744.75
570,37609.61
571,37454.26
572,37304.91
573,37183.99
574,37107.51
575,37090.73
576,37132.8
577,37180.17
578,37168.73
579,37048.61
580,36859.35
581,36675.5
582,36566.09
583,36528.8
584,36510.22
585,36457.09
586,36353.44
587,36230.43
588,36122.05
589,36048.3
590,35997.88
591,35955.22
592,35906.48
593,35844.95
594,35765.82
595,35665.72
596,35553.02
597,35441.64
598,35344.91
599,35265.75
600,35198.31
601,35136.6
602,35079.09
603,35030.71
604,34996.84
605,34977.26
606,34957.54
607,34921.17
608,34857.78
609,34784.84
610,34727.67
611,34707.22
612,34708.39
613,34697.97
614,34644.8
615,34552.54
616,34454.42
617,34383.93
618,34349.7
619,34325.33
620,34281.92
621,34201.27
622,34090.42
623,33960.06
624,33820.16
625,33677.94
626,33539.88
627,33412.7
628,33305.37
629,33227.81
630,33188.5
631,33175.88
632,33163.7
633,33126.04
634,33055.21
635,32965.14
636,32870.93
637,32785.65
638,32718.52
639,32678.27
640,32665.24
641,32652.89
642,32609.44
643,32511.13
644,32377.23
645,32241.36
646,32134.26
647,32060.28
648,32009.29
649,31971.41
650,31943.2
651,31926.79
652,31924.2
653,31924.57
654,31899.74
655,31820.55
656,31681.26
657,31525.59
658,31403.38
659,31347.62
660,31334.36
661,31327.66
662,31297.27
663,31243.79
664,31178.47
665,31112.1
666,31051.46
667,31001.17
668,30964.9
669,30930.69
670,30873.77
671,30769.91
672,30625.29
673,30483.86
674,30391.42
675,30365.66
676,30371.67
677,30368.9
678,30328.99
679,30258.14
680,30168.75
681,30071.93
682,29973.39
683,29877.31
684,29787.85
685,29709.4
686,29646.4
687,29602.25
688,29568.4
689,29528.64
690,29467.6
691,29387.42
692,29306.57
693,29243.73
694,29203.47
695,29171.28
696,29131.42
697,29075.17
698,29007.46
699,28934.8
700,28863.61
701,28800.04
702,28750.21
703,28717.97
704,28697.61
705,28680.84
706,28659.45
707,28625.5
708,28571.15
709,28490.52
710,28396.84
711,28314.16
712,28264.98
713,28246.89
714,28237.56
715,28214.82
716,28175.07
717,28135.32
718,28113.32
719,28110.77
720,28104.5
721,28069.44
722,27994.46
723,27898.46
724,27804.14
725,27728.6
726,27672.22
727,27632.19
728,27604.12
729,27576.76
730,27537.02
731,27475.6
732,27405.98
733,27350.21
734,27326.81
735,27323.57
736,27312.24
737,27266.25
738,27180.57
739,27065.38
740,26931.4
741,26795.17
742,26678.77
743,26603.88
744,26576.08
745,26580.88
746,26602.63
747,26625.42
748,26632.93
749,26608.92
750,26548.53
751,26471.65
752,26401.36
753,26351.8
754,26311.38
755,26263.88
756,26199.27
757,26131.53
758,26080.46
759,26059.28
760,26047
761,26011.55
762,25927.1
763,25810.93
764,25698.86
765,25622.6
766,25575.4
767,25529.14
768,25457.72
769,25363.35
770,25268.4
771,25194.71
772,25148.67
773,25122.75
774,25108.87
775,25096.57
776,25072.69
777,25024.32
778,24953.7
779,24884.5
780,24841.71
781,24833.71
782,24839.59
783,24835.62
784,24807.08
785,24759.06
786,24699.29
787,24636.05
788,24579.21
789,24538.89
790,24518.07
791,24494.96
792,24442.47
793,24343.35
794,24222.85
795,24117.75
796,24056.22
797,24020.35
798,23976.66
799,23897.98
800,23799.23
801,23712.83
802,23665.88
803,23640.54
804,23596.31
805,23497.75
806,23363.7
807,23246.01
808,23192.84
809,23198.56
810,23218.63
811,23209.51
812,23157.8
813,23075.89
814,22977.11
815,22878.48
816,22800.68
817,22763.69
818,22762.39
819,22762.04
820,22727.02
821,22648.19
822,22552.86
823,22470.66
824,22416.92
825,22384.29
826,22363.42
827,22346.99
828,22331.37
829,22313.37
830,22288.45
831,22249.28
832,22188.2
833,22105.21
834,22019.17
835,21951.69
836,21914.74
837,21893.13
838,21866.92
839,21822.82
840,21768.94
841,21717.72
842,21677.78
843,21643.63
844,21606.51
845,21559.17
846,21500.39
847,21430.59
848,21352.7
849,21281.81
850,21236.61
851,21229.15
852,21236.12
853,21222.41
854,21160.72
855,21070.68
856,20989.45
857,20947.84
858,20934.35
859,20919.89
860,20879.84
861,20822.77
862,20772.37
863,20748.74
864,20742.03
865,20727.41
866,20683.16
867,20616.25
868,20549.23
869,20502.36
870,20471.53
871,20438.42
872,20386.87
873,20326.76
874,20284.35
875,20282.84
876,20306.22
877,20312.12
878,20261.77
879,20169.71
880,20088.51
881,20067.52
882,20099.07
883,20132.43
884,20118.97
885,20057.38
886,19984.01
887,19934.15
888,19909.06
889,19881.64
890,19825.87
891,19749.08
892,19687.62
893,19676.69
894,19713.11
895,19759.08
896,19776.99
897,19756.11
898,19710.8
899,19656.17
900,19604.39
901,19564.8
902,19546.15
903,19547.38
904,19557.78
905,19566.52
906,19568.48
907,19564.23
908,19554.88
909,19548.62
910,19560.83
911,19605.86
912,19667.38
913,19697.58
914,19649.43
915,19524.76
916,19375.75
917,19255.15
918,19178.53
919,19123.05
920,19064.79
921,18993.21
922,18911.58
923,18823.87
924,18735.48
925,18653.31
926,18583.96
927,18525.35
928,18466.71
929,18397.58
930,18322.51
931,18260.86
932,18231.56
933,18232.3
934,18240.14
935,18232.09
936,18199.32
937,18146.41
938,18078.71
939,18007.21
940,17948.1
941,17916.66
942,17909.8
943,17908.15
944,17892.87
945,17862.94
946,17832.54
947,17815.33
948,17809.37
949,17800.04
950,17773.52
951,17732.51
952,17692.54
953,17668.18
954,17657.06
955,17644.23
956,17615.66
957,17571.49
958,17521.8
959,17476.52
960,17442.26
961,17423.45
962,17423.35
963,17433.54
964,17438.38
965,17424.13
966,17395.6
967,17368.28
968,17355.78
969,17354.41
970,17351.35
971,17335.09
972,17304.91
973,17265.36
974,17220.96
975,17175.8
976,17133.77
977,17098.71
978,17074.18
979,17063.62
980,17068.01
981,17073.7
982,17061.71
983,17018.37
984,16958.23
985,16905.18
986,16877.76
987,16869.37
988,16865.99
989,16856.22
990,16839.43
991,16817.87
992,16793.96
993,16770.83
994,16751.77
995,16736.11
996,16710.17
997,16657.65
998,16571.96
999,16474.53
1000,16391.69
1001,16340.58
1002,16314.94
1003,16304.9
1004,16301.58
1005,16298.18
1006,16288.25
1007,16266.34
1008,16231.82
1009,16185.44
1010,16129.79
1011,16074.96
1012,16032.88
1013,16011.47
1014,16004.83
1015,16004.06
1016,16001.39
1017,15992.3
1018,15972.92
1019,15942.07
1020,15905.41
1021,15869.68
1022,15840.11
1023,15818.67
1024,15806.88
1025,15801.95
1026,15793.2
1027,15769.3
1028,15728.98
1029,15686.8
1030,15658.3
1031,15644.77
1032,15628.76
1033,15592.28
1034,15538.78
1035,15495.56
1036,15489.46
1037,15515.25
1038,15537.88
1039,15523.6
1040,15474.06
1041,15418.28
1042,15383.69
1043,15372.22
1044,15369.61
1045,15362.91
1046,15352.66
1047,15346.37
1048,15349.85
1049,15356.97
1050,15356.64
1051,15340.27
1052,15312.55
1053,15282.52
1054,15257.69
1055,15239.17
1056,15226.45
1057,15218.59
1058,15213.25
1059,15207.83
1060,15201.2
1061,15195.94
1062,15195.11
1063,15198.3
1064,15198.41
1065,15187.7
1066,15164.37
1067,15135.5
1068,15108.88
1069,15091.52
1070,15089.54
1071,15108.24
1072,15137.79
1073,15154.72
1074,15137.43
1075,15093.61
1076,15051.2
1077,15035.67
1078,15046.96
1079,15071.6
1080,15097.38
1081,15120.54
1082,15140.63
1083,15156.98
1084,15167.79
1085,15170.93
1086,15164.96
1087,15150.64
1088,15129.19
1089,15103.68
1090,15081.66
1091,15071.15
1092,15070.5
1093,15061.21
1094,15023.65
1095,14956.7
1096,14882.76
1097,14824.9
1098,14790.75
1099,14773.58
1100,14766.22
1101,14763.07
1102,14759.54
1103,14751.31
1104,14736.14
1105,14712.74
1106,14681.18
1107,14648.58
1108,14624.4
1109,14615.02
1110,14615.64
1111,14618.87
1112,14617.78
1113,14606.45
1114,14579.25
1115,14539.35
1116,14504.98
1117,14495.23
1118,14510.27
1119,14527.81
1120,14525.23
1121,14496.28
1122,14448.28
1123,14389.38
1124,14332.32
1125,14292.43
1126,14280.89
1127,14282.99
1128,14274.23
1129,14237.71
1130,14186.73
1131,14142.01
1132,14115.48
1133,14096.59
1134,14071.42
1135,14035.16
1136,13998.36
1137,13972.78
1138,13963.31
1139,13967.11
1140,13980.68
1141,13996.4
1142,14003.63
1143,13993.45
1144,13971.79
1145,13951.76
1146,13942.72
1147,13935.36
1148,13914.64
1149,13874.19
1150,13833.84
1151,13818.17
1152,13834.66
1153,13858.45
1154,13861.82
1155,13838.9
1156,13810.26
1157,13796.89
1158,13802.76
1159,13818.62
1160,13836.13
1161,13857.14
1162,13888.41
1163,13934.41
1164,13988.66
1165,14041.46
1166,14085.68
1167,14121.32
1168,14149.6
1169,14171.98
1170,14190.23
1171,14205.97
1172,14215.3
1173,14208.64
1174,14177.56
1175,14129.88
1176,14083.83
1177,14054.81
1178,14040.02
1179,14029.71
1180,14014.54
1181,13986.8
1182,13939.14
1183,13872.25
1184,13802.85
1185,13749.27
1186,13719.26
1187,13708.01
1188,13709.34
1189,13708.53
1190,13684.8
1191,13621.92
1192,13535.03
1193,13452.29
1194,13396.22
1195,13368.6
1196,13366.43
1197,13379.44
1198,13382.6
1199,13349.86
1200,13278.75
1201,13194.38
1202,13122.78
1203,13082.18
1204,13085.54
1205,13139.63
1206,13214.14
1207,13264.74
1208,13263.79
1209,13237.53
1210,13222.77
1211,13237.78
1212,13268.45
1213,13297.75
1214,13315.94
1215,13320.45
1216,13310.27
1217,13296.46
1218,13296.62
1219,13322.17
1220,13355.41
1221,13370.22
1222,13351.83
1223,13312.5
1224,13268.34
1225,13230.59
1226,13204.25
1227,13192.78
1228,13184.95
1229,13159.14
1230,13099.35
1231,13024.34
1232,12965.77
1233,12944.08
1234,12946.33
1235,12953.58
1236,12954.15
1237,12947.44
1238,12934.06
1239,12919.4
1240,12912.7
1241,12920.45
1242,12929.32
1243,12917.57
1244,12874.15
1245,12823.37
1246,12796.62
1247,12809.68
1248,12852.64
1249,12912.78
1250,12970.46
1251,13000.03
1252,12980.69
1253,12927.22
1254,12869.82
1255,12832.07
1256,12815.5
1257,12817.08
1258,12831.51
1259,12849.8
1260,12863.06
1261,12869.07
1262,12871.03
1263,12871.98
1264,12872.88
1265,12873.89
1266,12874.71
1267,12873.73
1268,12869.21
1269,12863.22
1270,12863.18
1271,12876.12
1272,12898.69
1273,12920.31
1274,12931.13
1275,12925.93
1276,12901.02
1277,12861.64
1278,12833.87
1279,12845.83
1280,12897.31
1281,12956.52
1282,12992.42
1283,12996.36
1284,12971.71
1285,12926.71
1286,12887.68
1287,12884.98
1288,12925.15
1289,12973.98
1290,12994.77
1291,12974.81
1292,12920.71
1293,12843.03
1294,12772.41
1295,12746.82
1296,12782.64
1297,12842.02
1298,12879.7
1299,12879.4
1300,12857.79
1301,12831.88
1302,12805.72
1303,12776.59
1304,12744.26
1305,12717.58
1306,12707.25
1307,12714.75
1308,12727.6
1309,12733.15
1310,12731.74
1311,12732.72
1312,12743.25
1313,12759.33
1314,12773.71
1315,12781.77
1316,12784
1317,12781.7
1318,12779.8
1319,12786.34
1320,12807.72
1321,12839.79
1322,12874.56
1323,12907.08
1324,12939.51
1325,12974.79
1326,13010.42
1327,13038.42
1328,13052.48
1329,13059.88
1330,13073.68
1331,13101.82
1332,13138.36
1333,13175.05
1334,13204.44
1335,13219.93
1336,13216.82
1337,13204.95
1338,13200.97
1339,13214.59
1340,13235.29
1341,13249.08
1342,13247.49
1343,13228.51
1344,13192.39
1345,13154.81
1346,13138.91
1347,13155.76
1348,13180.86
1349,13184.02
1350,13160.63
1351,13135.81
1352,13132.48
1353,13142.45
1354,13142.88
1355,13121.99
1356,13099.24
1357,13098.57
1358,13118.79
1359,13131.21
1360,13112.52
1361,13088.09
1362,13104.37
1363,13180.69
1364,13268.31
1365,13310.11
1366,13298.19
1367,13272.56
1368,13268.53
1369,13280.41
1370,13287.23
1371,13280.09
1372,13275.85
1373,13293.49
1374,13333.06
1375,13379.05
1376,13418.13
1377,13449.92
1378,13477.89
1379,13500.13
1380,13505.56
1381,13484.3
1382,13451.2
1383,13437.32
1384,13461.56
1385,13497.22
1386,13507.82
1387,13485.22
1388,13458.34
1389,13454.02
1390,13461.79
1391,13452.98
1392,13412.04
1393,13358.25
1394,13315.6
1395,13288.6
1396,13263.22
1397,13228.45
1398,13193.71
1399,13175.25
1400,13178.74
1401,13190.96
1402,13197.52
1403,13194.64
1404,13185.41
1405,13172.89
1406,13159.7
1407,13148.31
1408,13140.37
1409,13136.55
1410,13138.58
1411,13155.91
1412,13201.15
1413,13277.88
1414,13370.58
1415,13461.48
1416,13536.15
1417,13582.61
1418,13594.45
1419,13586.46
1420,13578.39
1421,13580.7
1422,13592.09
1423,13608.27
1424,13609.11
1425,13567.75
1426,13482.32
1427,13404.41
1428,13387.95
1429,13422.92
1430,13452.76
1431,13437.01
1432,13398.09
1433,13371.89
1434,13367.08
1435,13360.56
1436,13332.6
1437,13295.78
1438,13274.93
1439,13277.81
1440,13280.88
1441,13260.56
1442,13229.72
1443,13223.46
1444,13261.61
1445,13318.95
1446,13363.04
1447,13380.55
1448,13375.71
1449,13354.27
1450,13325.52
1451,13299.71
1452,13282.33
1453,13272.42
1454,13268.7
1455,13271.02
1456,13279.64
1457,13294.38
1458,13314.12
1459,13337.08
1460,13355.38
1461,13357.4
1462,13341.4
1463,13333.98
1464,13364.68
1465,13425.54
1466,13476.04
1467,13484.41
1468,13459.16
1469,13419.14
1470,13385.28
1471,13380.93
1472,13422.56
1473,13486.22
1474,13534.02
1475,13548.35
1476,13543.18
1477,13533.85
1478,13524.75
1479,13515.13
1480,13507.44
1481,13510.56
1482,13532.99
1483,13570.32
1484,13610.31
1485,13641.09
1486,13652
1487,13633.51
1488,13589.63
1489,13534.67
1490,13480.65
1491,13431.41
1492,13389.21
1493,13358.45
1494,13345.53
1495,13350.87
1496,13350.75
1497,13316.86
1498,13261.41
1499,13240.78
1500,13295.25
1501,13376.29
1502,13410.28
1503,13385.81
1504,13369.88
1505,13417.62
1506,13488.25
1507,13508.63
1508,13463.53
1509,13420.41
1510,13438.4
1511,13481.74
1512,13478.11
1513,13416.19
1514,13380.81
1515,13447.57
1516,13564.51
1517,13625.17
1518,13590.71
1519,13537.69
1520,13542.95
1521,13597.88
1522,13654.59
1523,13687.61
1524,13712.09
1525,13743.99
1526,13771.55
1527,13769.8
1528,13732.55
1529,13688.33
1530,13665.99
1531,13665.51
1532,13672.82
1533,13680.25
1534,13692.14
1535,13712.25
1536,13728.87
1537,13722.99
1538,13690.73
1539,13655.58
1540,13639.9
1541,13634.1
1542,13613.9
1543,13577.28
1544,13560.56
1545,13594.78
1546,13644.22
1547,13644.5
1548,13581.28
1549,13520.73
1550,13525.08
1551,13581.8
1552,13648.46
1553,13692.92
1554,13698.33
1555,13657.24
1556,13610.1
1557,13613.45
1558,13677.64
1559,13753.14
1560,13795.39
1561,13805.41
1562,13798.48
1563,13793.11
1564,13811.43
1565,13865.03
1566,13920.57
1567,13935.45
1568,13923.12
1569,13950.54
1570,14056.32
1571,14174.33
1572,14220.95
1573,14192.68
1574,14149.4
1575,14137.04
1576,14158.19
1577,14206.94
1578,14263.81
1579,14300.68
1580,14306.35
1581,14306.28
1582,14326.38
1583,14355.58
1584,14364.59
1585,14342.48
1586,14309.05
1587,14285.32
1588,14281.63
1589,14303.87
1590,14342.29
1591,14367.49
1592,14359.01
1593,14341.8
1594,14352.05
1595,14398.03
1596,14461.85
1597,14525.58
1598,14574.55
1599,14596.6
1600,14604.26
1601,14626.79
1602,14683.27
1603,14769.8
1604,14878.18
1605,14990.13
1606,15082.74
1607,15147.84
1608,15199.44
1609,15254.93
1610,15339.38
1611,15478.13
1612,15641.86
1613,15745.13
1614,15735.83
1615,15680.42
1616,15662.64
1617,15674.48
1618,15645.1
1619,15538.28
1620,15393.08
1621,15253.77
1622,15133.17
1623,15030.15
1624,14938.8
1625,14846.92
1626,14745.11
1627,14637.98
1628,14533.87
1629,14440.25
1630,14363.85
1631,14310.67
1632,14284.83
1633,14288.36
1634,14307.29
1635,14319.59
1636,14313.12
1637,14290.75
1638,14257.52
1639,14222.88
1640,14197
1641,14178.7
1642,14156.67
1643,14127.52
1644,14109.35
1645,14120.05
1646,14145.39
1647,14155.09
1648,14139.91
1649,14121.39
1650,14119.37
1651,14135.39
1652,14165.49
1653,14198.18
1654,14215.92
1655,14212.1
1656,14205.51
1657,14213.98
1658,14223.11
1659,14205.01
1660,14156.26
1661,14103.03
1662,14069.8
1663,14068.44
1664,14106.12
1665,14166.67
1666,14219.13
1667,14245.58
1668,14251.09
1669,14244.24
1670,14239.94
1671,14253.41
1672,14269
1673,14244.07
1674,14171.89
1675,14132.05
1676,14196.25
1677,14292.54
1678,14291.29
1679,14181.9
1680,14088.95
1681,14101.06
1682,14173.63
1683,14240.67
1684,14274.76
1685,14269.73
1686,14238.92
1687,14222.49
1688,14245.26
1689,14266.17
1690,14234.21
1691,14165.92
1692,14121.24
1693,14130.27
1694,14173.24
1695,14227.23
1696,14276.1
1697,14307.59
1698,14337.66
1699,14402.49
1700,14495.7
1701,14533.27
1702,14451.91
1703,14330.53
1704,14284.52
1705,14321.63
1706,14365.79
1707,14372.62
1708,14362.6
1709,14359.29
1710,14364.88
1711,14374.41
1712,14376.74
1713,14355.92
1714,14310.77
1715,14268.46
1716,14253.67
1717,14262.52
1718,14282.81
1719,14308.24
1720,14337.05
1721,14366.73
1722,14393.23
1723,14414.27
1724,14436.27
1725,14467.22
1726,14503.22
1727,14532.15
1728,14546.17
1729,14544.6
1730,14529.16
1731,14508.33
1732,14491.11
1733,14473.24
1734,14442.91
1735,14403.76
1736,14380.66
1737,14388.94
1738,14408.31
1739,14415.47
1740,14421.46
1741,14453.39
1742,14513.7
1743,14577.53
1744,14620.9
1745,14625.68
1746,14582.15
1747,14526.39
1748,14508.75
1749,14525.11
1750,14525.45
1751,14490.6
1752,14461.16
1753,14471.76
1754,14503.01
1755,14523.83
1756,14534.68
1757,14554.94
1758,14584.36
1759,14596.43
1760,14576.91
1761,14552.27
1762,14550.65
1763,14560.97
1764,14557.62
1765,14552
1766,14588.33
1767,14673.75
1768,14743.62
1769,14743.13
1770,14692.89
1771,14630.77
1772,14569.61
1773,14508.47
1774,14464.97
1775,14478.8
1776,14559.34
1777,14638
1778,14652.05
1779,14637.04
1780,14657.02
1781,14707.44
1782,14735.33
1783,14713.79
1784,14654.8
1785,14583.2
1786,14552.87
1787,14608.08
1788,14695.07
1789,14725.9
1790,14693.41
1791,14655.09
1792,14640.88
1793,14634.39
1794,14621.09
1795,14605.67
1796,14597.12
1797,14607.44
1798,14648.16
1799,14701.13
1800,14724.14
1801,14703.61
1802,14672.53
1803,14658.27
1804,14657.45
1805,14663.05
1806,14683.8
1807,14732.86
1808,14794.58
1809,14831.38
1810,14827.05
1811,14797.18
1812,14756.32
1813,14708.96
1814,14661.96
1815,14644.46
1816,14688.49
1817,14765.84
1818,14809.94
1819,14805.74
1820,14801.38
1821,14827.24
1822,14865.46
1823,14892.76
1824,14891.21
1825,14849.97
1826,14808.15
1827,14826.99
1828,14896.18
1829,14939.51
1830,14914.12
1831,14836.31
1832,14738.6
1833,14685.51
1834,14728.25
1835,14805.63
1836,14825.13
1837,14797.28
1838,14796.4
1839,14824.59
1840,14802.53
1841,14711.42
1842,14658.6
1843,14719.63
1844,14807
1845,14815.68
1846,14760.84
1847,14704.34
1848,14689.48
1849,14744.71
1850,14839.96
1851,14877.24
1852,14815.03
1853,14731.82
1854,14702.69
1855,14740.92
1856,14836.4
1857,14916.84
1858,14895.65
1859,14801.07
1860,14733.49
1861,14723.74
1862,14727.53
1863,14740.26
1864,14833.12
1865,15017.65
1866,15108.25
1867,14953.77
1868,14760.81
1869,14806.02
1870,14980.35
1871,14988.99
1872,14833.15
1873,14761.36
1874,14849.75
1875,14933.59
1876,14916.39
1877,14883.67
1878,14912.25
1879,14965.86
1880,14993
1881,14998.07
1882,15003.6
1883,15010.96
1884,15009.24
1885,14986.25
1886,14929.33
1887,14849.16
1888,14788.24
1889,14778.13
1890,14822.12
1891,14905.77
1892,14967.67
1893,14953.32
1894,14897.95
1895,14859.72
1896,14837.53
1897,14802.77
1898,14770.29
1899,14786.5
1900,14837.33
1901,14839.6
1902,14776.94
1903,14752.03
1904,14822.57
1905,14903.37
1906,14912.95
1907,14870.26
1908,14816.35
1909,14779.86
1910,14779.67
1911,14785.73
1912,14745.5
1913,14666.78
1914,14603.66
1915,14585.02
1916,14610.29
1917,14671.8
1918,14753.11
1919,14835.01
1920,14893.96
1921,14908.04
1922,14862.78
1923,14764.05
1924,14706.91
1925,14784.69
1926,14892.95
1927,14861.88
1928,14720.45
1929,14611.78
1930,14606.37
1931,14711.03
1932,14847.75
1933,14848.78
1934,14695.42
1935,14600.76
1936,14671.58
1937,14756.25
1938,14734.69
1939,14665.82
1940,14621.77
1941,14603.84
1942,14595.46
1943,14576.49
1944,14533.39
1945,14510.69
1946,14568.88
1947,14659.49
1948,14676.16
1949,14630.55
1950,14623.14
1951,14653.67
1952,14619.44
1953,14506.05
1954,14419.92
1955,14424.94
1956,14499.6
1957,14598.79
1958,14644.33
1959,14588.06
1960,14478.1
1961,14377.1
1962,14339.05
1963,14398.26
1964,14505.28
1965,14594.77
1966,14654.67
1967,14689.81
1968,14681.09
1969,14604.94
1970,14507.16
1971,14467.01
1972,14463.71
1973,14411.28
1974,14358.75
1975,14466.66
1976,14673.67
1977,14684.72
1978,14461.27
1979,14305.88
1980,14352.56
1981,14441.08
1982,14451.6
1983,14385.49
1984,14272.42
1985,14175.56
1986,14134.14
1987,14112.19
1988,14085.31
1989,14103.93
1990,14198.01
1991,14265.57
1992,14216.21
1993,14148.43
1994,14180.36
1995,14258.37
1996,14286.23
1997,14249.59
1998,14171.49
1999,14120.57
2000,14165.75
2001,14210.64
2002,14100.23
2003,13915.38
2004,13854.33
2005,13926.08
2006,14019.95
2007,14048.92
2008,13953.45
2009,13819.29
2010,13835.29
2011,13983.73
2012,14071.74
2013,14065.02
2014,14082
2015,14128.44
2016,14089.49
2017,13946.96
2018,13798.08
2019,13726.81
2020,13790.21
2021,13928.65
2022,13935.15
2023,13764.61
2024,13611.11
2025,13582.52
2026,13631.35
2027,13696.81
2028,13717.72
2029,13676.47
2030,13627.19
2031,13585.48
2032,13489.45
2033,13349.52
2034,13318.77
2035,13429.23
2036,13461.26
2037,13321.73
2038,13211.57
2039,13249.43
2040,13328.06
2041,13372.93
2042,13426.5
2043,13488.79
2044,13447.42
2045,13297.37
2046,13276.78
2047,13463.38
2048,13551.82
2049,13376.38
2050,13145.24
2051,13031.44
2052,13047.97
2053,13135.3
2054,13130.19
2055,12975.68
2056,12840.15
2057,12832.11
2058,12901.38
2059,12971.01
2060,12948.2
2061,12826.82
2062,12751.65
2063,12772.94
2064,12761.84
2065,12665.05
2066,12573.25
2067,12545.96
2068,12577.13
2069,12622.64
2070,12594.96
2071,12491.95
2072,12424.84
2073,12429.01
2074,12440.14
2075,12448.29
2076,12507.72
2077,12579.17
2078,12529.36
2079,12363.89
2080,12220.49
2081,12161.3
2082,12175.63
2083,12211.88
2084,12195.88
2085,12157.22
2086,12184.8
2087,12200.61
2088,12047.1
2089,11832.64
2090,11782.82
2091,11840.87
2092,11836.4
2093,11798.91
2094,11817.06
2095,11805.73
2096,11658.98
2097,11506.69
2098,11497.22
2099,11519.61
2100,11441.27
2101,11319.11
2102,11253.02
2103,11337.65
2104,11563.21
2105,11646.63
2106,11454.12
2107,11282.42
2108,11306.35
2109,11366.16
2110,11348.42
2111,11270.02
2112,11200.28
2113,11254.99
2114,11366.41
2115,11279.39
2116,11012.9
2117,10825.8
2118,10782.25
2119,10796.88
2120,10785.57
2121,10690.35
2122,10642.68
2123,10800.98
2124,10918.12
2125,10719.07
2126,10555.98
2127,10753.46
2128,10813.84
2129,10376.38
2130,10043.44
2131,10211.12
2132,10415.75
2133,10323.18
2134,10037.67
2135,9757.447
2136,9736.222
2137,9907.673
2138,9884.065
2139,9713.72
2140,9775.843
2141,9931.015
2142,9770.854
2143,9455.742
2144,9356.043
2145,9435.423
2146,9518.111
2147,9467.014
2148,9253.851
2149,9154.952
2150,9282.07
2151,9244.751
2152,8914.834
2153,8709.499
2154,8792.545
2155,8953.679
2156,9043.026
2157,8997.183
2158,8876.594
2159,8804.533
2160,8754.75
2161,8650.348
2162,8540.078
2163,8506.17
2164,8592.267
2165,8743.579
2166,8672.432
2167,8301.719
2168,8008.455
2169,7974.517
2170,8061.175
2171,8106.059
2172,7965.523
2173,7739.745
2174,7655.306
2175,7696.625
2176,7739.596
2177,7668.935
2178,7459.048
2179,7361.024
2180,7486.584
2181,7536.406
2182,7368.959
2183,7146.069
2184,7016.132
2185,7072.303
2186,7179.286
2187,7096.492
2188,6921.878
2189,6851.676
2190,6837.291
2191,6778.776
2192,6631.998
2193,6433.997
2194,6350.724
2195,6415.988
2196,6490.239
2197,6534.421
2198,6587.079
2199,6577.422
2200,6419.475
2201,6257.691
2202,6222.564
2203,6154.824
2204,5982.175
2205,5916.155
2206,5959.577
2207,5829.688
2208,5583.654
2209,5522.017
2210,5548.606
2211,5444.535
2212,5396.343
2213,5539.173
2214,5501.972
2215,5177.2
2216,5060.729
2217,5235.199
2218,5300.021
2219,5209.675
2220,5134.806
2221,5004.842
2222,4748.45
2223,4651.482
2224,4813.766
2225,4776.185
2226,4452.916
2227,4294.657
2228,4349.781
2229,4374.653
2230,4438.396
2231,4648.742
2232,4687.85
2233,4376.627
2234,4086.187
2235,4004.846
2236,3988.74
2237,3965.509
2238,3943.62
2239,3995.428
2240,4145.101
2241,4130.344
2242,3860.26
2243,3731.362
2244,3791.023
2245,3642.663
2246,3379.311
2247,3361.1
2248,3463.112
2249,3456.449
2250,3357.615
2251,3243.17
2252,3205.034
2253,3225.087
2254,3192.885
2255,3105.813
2256,2999.544
2257,2826.362
2258,2623.977
2259,2659.993
2260,2902.575
2261,2958.448
2262,2831.765
2263,2768.805
2264,2843.583
2265,2977.474
2266,2848.59
2267,2429.98
2268,2149.624
2269,2182.405
2270,2454.964
2271,2694.468
2272,2664.532
2273,2468.756
2274,2274.469
2275,2233.351
2276,2261.435
2277,2136.506
2278,1960.029
2279,1920.528
2280,2061.355
2281,2256.996
2282,2195.515
2283,1982.242
2284,1984.696
2285,2096.95
2286,2077.749
2287,1835.436
2288,1479.356
2289,1335.204
2290,1385.715
2291,1420.301
2292,1542.369
2293,1773.624
2294,1691.118
2295,1299.316
2296,1135.149
2297,1242.841
2298,1400.504
2299,1540.978
2300,1616.587
