400,40597.08
401,40501.95
402,40371.18
403,40253.32
404,40201.3
405,40249.96
406,40351.12
407,40432.72
408,40427.64
409,40337.77
410,40218.11
411,40124.54
412,40088.02
413,40091.41
414,40112.16
415,40130.25
416,40138.35
417,40133.46
418,40112.87
419,40079.17
420,40039.46
421,40000.96
422,39966.5
423,39929.93
424,39883.89
425,39823.16
426,39754.04
427,39686.92
428,39631.48
429,39585.27
430,39535.22
431,39468
432,39379.75
433,39286.66
434,39207.45
435,39158.21
436,39140.63
437,39151.33
438,39185.89
439,39221.3
440,39218.52
441,39138.48
442,38975.56
443,38792.08
444,38658.31
445,38626.33
446,38654.26
447,38669.78
448,38605.56
449,38466.3
450,38313.38
451,38209.09
452,38183.39
453,38207.81
454,38247.75
455,38270.05
456,38247.22
457,38153.48
458,37967.93
459,37729.41
460,37517.11
461,37409.6
462,37424.7
463,37487.35
464,37515.02
465,37449.88
466,37323.18
467,37186.39
468,37086.45
469,37029.86
470,37000.95
471,36983.83
472,36960.12
473,36908.46
474,36807.37
475,36652.17
476,36484.33
477,36353.05
478,36298.25
479,36298.64
480,36307.71
481,36280.86
482,36208.75
483,36114.26
484,36021.3
485,35947.95
486,35900.95
487,35885.59
488,35901.64
489,35923.18
490,35917.03
491,35853.45
492,35741.27
493,35614.13
494,35505.48
495,35428.3
496,35367.68
497,35306.83
498,35233.82
499,35151.24
500,35064.32
501,34978.08
502,34896.17
503,34821.66
504,34757.57
505,34706.4
506,34670.17
507,34650.79
508,34642.33
509,34624.45
510,34575.32
511,34479.12
512,34344.03
513,34184.23
514,34015.04
515,33863.23
516,33761.75
517,33741.87
518,33790.03
519,33843.13
520,33835.91
521,33736.37
522,33587.1
523,33440.7
524,33339.89
525,33280.06
526,33242.23
527,33208.07
528,33165.73
529,33107.49
530,33025.97
531,32922.62
532,32809.87
533,32700.73
534,32604.78
535,32523.13
536,32455.6
537,32400.05
538,32344.17
539,32272.35
540,32171.33
541,32055.19
542,31955.9
543,31904.81
544,31904.45
545,31921.21
546,31919.33
547,31876.66
548,31804.11
549,31717.48
550,31631.16
551,31552.61
552,31487.11
553,31439.29
554,31406.83
555,31383.18
556,31361.67
557,31332.7
558,31283.38
559,31200.75
560,31084.81
561,30963.64
562,30868.88
563,30822.65
564,30806.78
565,30792.38
566,30753.32
567,30687.03
568,30603.1
569,30511.2
570,30419.99
571,30337.26
572,30270.66
573,30221.88
574,30182.3
575,30142.34
576,30094.25
577,30036.19
578,29967.55
579,29888.44
580,29803.56
581,29719.4
582,29642
583,29571.5
584,29503.81
585,29434.99
586,29368.83
587,29318.94
588,29299.41
589,29310.79
590,29322.93
591,29301.65
592,29223.62
593,29110.84
594,28997.15
595,28911.83
596,28848.73
597,28784.6
598,28697.64
599,28590.57
600,28486.68
601,28409.53
602,28367.23
603,28345.69
604,28329.15
605,28304.32
606,28263.83
607,28201.3
608,28114.72
609,28021.85
610,27946.03
611,27906.52
612,27889.04
613,27862.46
614,27797.6
615,27698.69
616,27598.3
617,27529.22
618,27499.4
619,27481.87
620,27447.12
621,27380.23
622,27300.75
623,27233.11
624,27194.26
625,27170.32
626,27139.47
627,27083.56
628,27010.88
629,26941.52
630,26893.75
631,26860.68
632,26816.99
633,26737.97
634,26630.71
635,26540.03
636,26512.43
637,26556.67
638,26608.99
639,26597.71
640,26481.45
641,26315.11
642,26172.52
643,26111.85
644,26107.7
645,26106.6
646,26061.26
647,25980.43
648,25903.67
649,25868.68
650,25877.58
651,25901.65
652,25911.54
653,25888.97
654,25830.62
655,25734.27
656,25609.03
657,25488.03
658,25407.27
659,25386.97
660,25393.71
661,25382.85
662,25318.92
663,25216.52
664,25107.54
665,25021.53
666,24967.94
667,24945.27
668,24951
669,24967.07
670,24962.61
671,24907.37
672,24802.39
673,24687.52
674,24604.62
675,24573.51
676,24572.76
677,24576.51
678,24564.52
679,24532.41
680,24478.68
681,24403.91
682,24317.92
683,24233.13
684,24160.38
685,24099.97
686,24047.65
687,23999.09
688,23949.17
689,23892.27
690,23823.31
691,23747.61
692,23680.16
693,23635.96
694,23616.54
695,23605.24
696,23584.25
697,23541.3
698,23474.94
699,23384.97
700,23277.6
701,23177.43
702,23112.29
703,23099.53
704,23111.64
705,23109.16
706,23059.84
707,22976.97
708,22891.88
709,22832.85
710,22799.13
711,22773.42
712,22739.22
713,22694.92
714,22650.81
715,22617.06
716,22592.23
717,22561.96
718,22511.49
719,22439.79
720,22366.98
721,22314.81
722,22290.7
723,22271.18
724,22228.88
725,22149.89
726,22060.88
727,21996.12
728,21979.21
729,21988.25
730,21989.15
731,21953.49
732,21886.72
733,21807.13
734,21731.61
735,21665.3
736,21607.19
737,21556.15
738,21510.52
739,21468.22
740,21427.16
741,21385.44
742,21341.27
743,21292.88
744,21239.41
745,21181.02
746,21117.99
747,21054.69
748,21002.15
749,20971.93
750,20967.09
751,20972.19
752,20969.4
753,20946.51
754,20907.46
755,20859.13
756,20808.46
757,20762.81
758,20729.64
759,20712.49
760,20694.61
761,20652.63
762,20568.74
763,20463.68
764,20374.65
765,20334.08
766,20329.34
767,20322.78
768,20279.61
769,20204.85
770,20131.79
771,20092.58
772,20089.74
773,20099.12
774,20096.21
775,20070.9
776,20029.25
777,19978.13
778,19923.04
779,19867.51
780,19814.88
781,19765.28
782,19713.17
783,19652.46
784,19583.64
785,19521.67
786,19483.37
787,19475.76
788,19478.87
789,19468.17
790,19427.98
791,19373.27
792,19325.55
793,19300.44
794,19288.01
795,19271.41
796,19236.06
797,19179.44
798,19103.11
799,19010.36
800,18915.94
801,18839.42
802,18797.3
803,18780.79
804,18768.35
805,18739.81
806,18690.13
807,18623.4
808,18544.58
809,18468.54
810,18417.34
811,18411.33
812,18439.38
813,18463.45
814,18446.24
815,18385.73
816,18315.31
817,18268.99
818,18254.97
819,18251.07
820,18233.77
821,18192.65
822,18135.34
823,18070.74
824,18009.02
825,17962.36
826,17942.96
827,17949.8
828,17957.52
829,17938.27
830,17879.22
831,17799.46
832,17722.07
833,17663.47
834,17623.71
835,17600.36
836,17587.04
837,17566.1
838,17517.96
839,17434.48
840,17344.63
841,17284.75
842,17278.52
843,17302.72
844,17323.33
845,17312.73
846,17269.97
847,17201.18
848,17115.56
849,17037.38
850,16995.33
851,17009.03
852,17049.52
853,17071.62
854,17038.51
855,16963.34
856,16877.94
857,16810.61
858,16766.38
859,16740.54
860,16728.07
861,16721.1
862,16710.55
863,16688.31
864,16654.45
865,16613.08
866,16568.15
867,16521.93
868,16475.79
869,16431.22
870,16391.23
871,16359.72
872,16340.12
873,16330.2
874,16324.26
875,16316.39
876,16298.95
877,16263.16
878,16201.85
879,16129.74
880,16077.18
881,16072.08
882,16103.43
883,16130.85
884,16115.87
885,16059.57
886,15994.54
887,15952.61
888,15940.16
889,15942.29
890,15943.92
891,15937.56
892,15922.29
893,15897.62
894,15867.44
895,15839.56
896,15821.34
897,15809.1
898,15788.79
899,15746.94
900,15688.96
901,15638.37
902,15618.35
903,15629.28
904,15649.21
905,15655.92
906,15640.17
907,15605.79
908,15557.28
909,15502.77
910,15454.05
911,15422.51
912,15406.84
913,15392.77
914,15366.04
915,15326.14
916,15286.75
917,15261.52
918,15249.37
919,15234.02
920,15199.04
921,15139.75
922,15063.5
923,14978.31
924,14894.93
925,14826.92
926,14787.29
927,14774.54
928,14772.63
929,14765.35
930,14745.83
931,14716.49
932,14680.14
933,14639.2
934,14595.82
935,14552.14
936,14511.66
937,14479.17
938,14459.2
939,14451.51
940,14451.44
941,14454.18
942,14454.12
943,14445
944,14420.89
945,14381.52
946,14331.48
947,14275.8
948,14224.67
949,14192.5
950,14192.28
951,14214.44
952,14231.96
953,14219.63
954,14183.39
955,14152.1
956,14152.17
957,14172.79
958,14177.24
959,14132.55
960,14054.23
961,13989.55
962,13981.06
963,14015.74
964,14046.64
965,14031.29
966,13975.19
967,13911.11
968,13868.94
969,13850.33
970,13842.02
971,13831.68
972,13815.12
973,13792.12
974,13763.08
975,13732.99
976,13708.86
977,13695.85
978,13687.06
979,13670.7
980,13637.78
981,13595.78
982,13558.28
983,13536.68
984,13531.01
985,13537.54
986,13551.62
987,13564.24
988,13565.09
989,13547.11
990,13516.74
991,13483.98
992,13456.65
993,13434.41
994,13415.06
995,13395.83
996,13372.17
997,13339.13
998,13294.15
999,13241.42
1000,13186.32
1001,13134.47
1002,13092.02
1003,13065.17
1004,13055.87
1005,13056.58
1006,13058.55
1007,13054.25
1008,13041.87
1009,13021.25
1010,12993.8
1011,12967.21
1012,12950.75
1013,12949.73
1014,12955.85
1015,12957.86
1016,12947.14
1017,12922.8
1018,12885.36
1019,12839.38
1020,12799.6
1021,12782.33
1022,12792.78
1023,12812.22
1024,12818.97
1025,12803.4
1026,12778.11
1027,12757.91
1028,12748.52
1029,12741.42
1030,12726.98
1031,12698.88
1032,12655.23
1033,12594.87
1034,12528.48
1035,12479.89
1036,12472.2
1037,12500.41
1038,12533.43
1039,12541.25
1040,12524.03
1041,12505.17
1042,12506.63
1043,12527.3
1044,12551.41
1045,12564.48
1046,12565.19
1047,12558.99
1048,12550.59
1049,12539.25
1050,12521.94
1051,12496.42
1052,12464.47
1053,12429.24
1054,12394.69
1055,12368.26
1056,12358.26
1057,12367.8
1058,12383.38
1059,12388.23
1060,12374.82
1061,12358.37
1062,12357.44
1063,12376.57
1064,12393.49
1065,12383.26
1066,12340.07
1067,12286.7
1068,12247.75
1069,12234.49
1070,12242.61
1071,12266.93
1072,12301.85
1073,12341.38
1074,12379.58
1075,12410.84
1076,12429.79
1077,12433.04
1078,12434.66
1079,12457.89
1080,12519.72
1081,12597.17
1082,12651.6
1083,12655.07
1084,12628.61
1085,12607.2
1086,12614.5
1087,12637.07
1088,12653.89
1089,12652.71
1090,12642.19
1091,12633.85
1092,12629.56
1093,12614.47
1094,12572.54
1095,12505.53
1096,12437.75
1097,12393.76
1098,12374.34
1099,12358.23
1100,12325.11
1101,12276.04
1102,12226.47
1103,12190.17
1104,12165.73
1105,12144.38
1106,12119.09
1107,12092.3
1108,12069.6
1109,12055.96
1110,12054.14
1111,12066.34
1112,12091.84
1113,12122.53
1114,12149.25
1115,12166.47
1116,12174.79
1117,12175.41
1118,12168.65
1119,12153.78
1120,12130.05
1121,12097.46
1122,12056.62
1123,12008.4
1124,11955.86
1125,11903.29
1126,11854.58
1127,11810.7
1128,11771.57
1129,11736.89
1130,11705.56
1131,11676.27
1132,11646.95
1133,11613.6
1134,11572
1135,11522.63
1136,11473.92
1137,11435
1138,11413.48
1139,11415.31
1140,11444.7
1141,11482.6
1142,11492.68
1143,11445.27
1144,11368.19
1145,11317.21
1146,11333.44
1147,11385.2
1148,11418.54
1149,11399.37
1150,11353.44
1151,11317.61
1152,11309.56
1153,11310.87
1154,11299.65
1155,11271.3
1156,11242.14
1157,11228.41
1158,11226.56
1159,11217.68
1160,11185.98
1161,11143.92
1162,11117.71
1163,11126.52
1164,11156
1165,11181.97
1166,11187.68
1167,11177.04
1168,11157.49
1169,11136.08
1170,11119.22
1171,11112.93
1172,11115.35
1173,11116.46
1174,11107.05
1175,11091.84
1176,11084.4
1177,11094.33
1178,11105.72
1179,11092.97
1180,11042.75
1181,10984.46
1182,10956.66
1183,10974.3
1184,11005.16
1185,11012.12
1186,10982.88
1187,10934.61
1188,10885.7
1189,10847.76
1190,10827.59
1191,10829.63
1192,10843.33
1193,10851.93
1194,10842.73
1195,10817.96
1196,10783.24
1197,10744.83
1198,10710.21
1199,10686.8
1200,10675.54
1201,10669.75
1202,10662.9
1203,10655.43
1204,10652.53
1205,10658.16
1206,10668.34
1207,10676.1
1208,10676.56
1209,10671.48
1210,10664.04
1211,10659.15
1212,10664.79
1213,10688.54
1214,10722.68
1215,10744.41
1216,10733.86
1217,10704.55
1218,10688.25
1219,10706.9
1220,10735.99
1221,10737.61
1222,10695.21
1223,10643.24
1224,10622.81
1225,10645.71
1226,10686.02
1227,10716.41
1228,10724.04
1229,10706.23
1230,10663.74
1231,10616.35
1232,10590.92
1233,10601.69
1234,10625.37
1235,10632.1
1236,10610.96
1237,10579.96
1238,10558.75
1239,10553.07
1240,10557.35
1241,10565.99
1242,10575.23
1243,10582.17
1244,10585.29
1245,10587.77
1246,10593.66
1247,10602.01
1248,10603.59
1249,10589.22
1250,10564.37
1251,10546.96
1252,10552.03
1253,10571.13
1254,10585.61
1255,10584.09
1256,10579.23
1257,10588.39
1258,10613.28
1259,10630.57
1260,10616.55
1261,10576.97
1262,10541.41
1263,10535.55
1264,10554.98
1265,10583.32
1266,10606.66
1267,10618.32
1268,10613.17
1269,10594.62
1270,10578.06
1271,10578.28
1272,10590.18
1273,10594.9
1274,10577.75
1275,10547.45
1276,10520.39
1277,10508.61
1278,10513.97
1279,10536.62
1280,10568.67
1281,10593.32
1282,10595.11
1283,10575.49
1284,10544.96
1285,10514.78
1286,10498.66
1287,10510.77
1288,10550.89
1289,10594.37
1290,10615.58
1291,10612.68
1292,10602.94
1293,10601.19
1294,10604.35
1295,10602.79
1296,10594.41
1297,10596.01
1298,10626.31
1299,10673.27
1300,10689.93
1301,10635.49
1302,10540.96
1303,10474.9
1304,10481.49
1305,10517.52
1306,10521.25
1307,10477.45
1308,10441.69
1309,10469.8
1310,10544.21
1311,10596.73
1312,10576.85
1313,10522.52
1314,10497.52
1315,10532.25
1316,10592.44
1317,10637.78
1318,10653.32
1319,10645.77
1320,10623.97
1321,10605.07
1322,10609.25
1323,10643.31
1324,10682.75
1325,10699.65
1326,10692.84
1327,10687.92
1328,10706.59
1329,10734.4
1330,10741.42
1331,10715.85
1332,10694.55
1333,10720.81
1334,10789.45
1335,10841.33
1336,10824.63
1337,10767.45
1338,10735.44
1339,10767.23
1340,10822.79
1341,10849.21
1342,10835.51
1343,10819.71
1344,10836.64
1345,10872.15
1346,10888.3
1347,10860.96
1348,10806.82
1349,10749.89
1350,10708.67
1351,10695.28
1352,10718.49
1353,10763.1
1354,10802.6
1355,10819.34
1356,10820.68
1357,10818.12
1358,10818.5
1359,10823.58
1360,10834.92
1361,10854.72
1362,10885.46
1363,10923.5
1364,10949.99
1365,10944.95
1366,10915.99
1367,10897.57
1368,10918.2
1369,10963.03
1370,11001
1371,11015.48
1372,11020.49
1373,11033.21
1374,11057.84
1375,11087.91
1376,11115.57
1377,11127.95
1378,11110.85
1379,11068.86
1380,11038.52
1381,11055.07
1382,11099.96
1383,11119.6
1384,11078.89
1385,11013.28
1386,10973.62
1387,10979.53
1388,11009.96
1389,11041.8
1390,11058.41
1391,11046.25
1392,11001.62
1393,10946.46
1394,10905.93
1395,10884.28
1396,10865.85
1397,10837.26
1398,10801.77
1399,10768.25
1400,10744.12
1401,10734.19
1402,10742.16
1403,10761.86
1404,10780.72
1405,10790.76
1406,10800.46
1407,10821.41
1408,10850.29
1409,10866.12
1410,10851.04
1411,10815.32
1412,10780.99
1413,10766.82
1414,10784.47
1415,10842.7
1416,10921.01
1417,10977.14
1418,10982.74
1419,10965.63
1420,10966.54
1421,10997.02
1422,11031.64
1423,11045.92
1424,11039.18
1425,11021.11
1426,11000.18
1427,10982.08
1428,10972
1429,10972.57
1430,10984.54
1431,11005.09
1432,11018.65
1433,11007.15
1434,10968.18
1435,10917.55
1436,10872.34
1437,10850.97
1438,10872.18
1439,10931.59
1440,10982.47
1441,10978.78
1442,10932.07
1443,10888.96
1444,10882.1
1445,10902.1
1446,10932.36
1447,10964
1448,10995.26
1449,11022.92
1450,11036.13
1451,11022.17
1452,10985.16
1453,10951.96
1454,10946.84
1455,10963.52
1456,10982.62
1457,10993.88
1458,11005.08
1459,11025.48
1460,11056.42
1461,11094.35
1462,11132.85
1463,11157.63
1464,11154.26
1465,11131.45
1466,11117.97
1467,11132.27
1468,11147.9
1469,11128.34
1470,11080.03
1471,11059.78
1472,11112.28
1473,11196.45
1474,11241.62
1475,11222.48
1476,11184.24
1477,11172.24
1478,11184.3
1479,11195.95
1480,11193.06
1481,11182.67
1482,11173.42
1483,11163.53
1484,11144.86
1485,11116.56
1486,11096.73
1487,11104.74
1488,11133.56
1489,11156.19
1490,11152.78
1491,11128.55
1492,11093.85
1493,11058.11
1494,11029.95
1495,11016.27
1496,11016.91
1497,11029.87
1498,11050.27
1499,11070.16
1500,11082.51
1501,11085.76
1502,11080.23
1503,11074.73
1504,11088.82
1505,11135.6
1506,11187.84
1507,11204.89
1508,11181.43
1509,11162.54
1510,11186.68
1511,11224.39
1512,11220.12
1513,11162.56
1514,11110.2
1515,11118.2
1516,11172.88
1517,11230.92
1518,11264.3
1519,11271.29
1520,11254.73
1521,11233.33
1522,11233.01
1523,11263.69
1524,11306.65
1525,11341.48
1526,11358.98
1527,11355.36
1528,11334.22
1529,11312.67
1530,11307.62
1531,11322.06
1532,11352.12
1533,11385.8
1534,11396.39
1535,11362.49
1536,11319.34
1537,11329.2
1538,11405.3
1539,11472.09
1540,11457.06
1541,11385.54
1542,11328.29
1543,11327.11
1544,11373.32
1545,11450.81
1546,11525.91
1547,11557.59
1548,11535.58
1549,11498.94
1550,11484.44
1551,11483.51
1552,11469.81
1553,11441.34
1554,11431.64
1555,11468.23
1556,11526.9
1557,11565.45
1558,11566.3
1559,11543.85
1560,11514.28
1561,11491.95
1562,11490.2
1563,11508.33
1564,11529.84
1565,11541.86
1566,11550.5
1567,11566.23
1568,11587.64
1569,11601.98
1570,11603.79
1571,11614.3
1572,11657.81
1573,11716.97
1574,11741.46
1575,11711.5
1576,11693.33
1577,11758.48
1578,11869.65
1579,11920.26
1580,11866.03
1581,11798.9
1582,11815.59
1583,11901.93
1584,11988.63
1585,12033.82
1586,12041.86
1587,12023.38
1588,12000.71
1589,12000.13
1590,12028.21
1591,12066.62
1592,12100.03
1593,12133.47
1594,12176.99
1595,12227.98
1596,12271.99
1597,12297.09
1598,12300.83
1599,12284.52
1600,12273.33
1601,12308.53
1602,12399.24
1603,12484.17
1604,12501.81
1605,12463.73
1606,12416.11
1607,12386.87
1608,12376.24
1609,12381.92
1610,12400.47
1611,12427.78
1612,12453.74
1613,12462.01
1614,12447.5
1615,12442.97
1616,12483.72
1617,12537.21
1618,12524.67
1619,12421.56
1620,12318.84
1621,12304.7
1622,12339.68
1623,12329.67
1624,12254.16
1625,12191.18
1626,12199.84
1627,12227.87
1628,12198.01
1629,12120.07
1630,12077.1
1631,12114.41
1632,12176.15
1633,12198.24
1634,12183.22
1635,12167.5
1636,12163.99
1637,12149.95
1638,12109.42
1639,12072.45
1640,12080.02
1641,12120.39
1642,12134.87
1643,12091.75
1644,12033.82
1645,12010.43
1646,12023.64
1647,12051.29
1648,12073.36
1649,12073.34
1650,12042.71
1651,12007.28
1652,12000.19
1653,12018.16
1654,12028.37
1655,12013.33
1656,11992.44
1657,11985.73
1658,11980.14
1659,11949.13
1660,11899.41
1661,11878.1
1662,11918.25
1663,11995.32
1664,12073.52
1665,12132.62
1666,12162.38
1667,12159.01
1668,12129.51
1669,12084.66
1670,12048.6
1671,12048.2
1672,12081.26
1673,12120.12
1674,12144.35
1675,12152.68
1676,12147.12
1677,12133.88
1678,12120.75
1679,12110.13
1680,12098.23
1681,12082.45
1682,12064.74
1683,12047.74
1684,12032.43
1685,12019
1686,12013.97
1687,12032.73
1688,12080.91
1689,12124.81
1690,12125.5
1691,12093.04
1692,12069.07
1693,12080.18
1694,12127.54
1695,12200.99
1696,12250.83
1697,12222.59
1698,12149.71
1699,12129.17
1700,12190.55
1701,12238.63
1702,12193.62
1703,12116.2
1704,12104.02
1705,12163.39
1706,12229.5
1707,12257.01
1708,12241.59
1709,12187.43
1710,12118.89
1711,12065.57
1712,12039.32
1713,12037.9
1714,12062.57
1715,12121.9
1716,12216.41
1717,12302.81
1718,12328.02
1719,12296.02
1720,12254.09
1721,12231.46
1722,12223.03
1723,12221.43
1724,12225.31
1725,12235.15
1726,12253.05
1727,12282.13
1728,12318.06
1729,12344.52
1730,12345.88
1731,12313.72
1732,12245.37
1733,12179.91
1734,12180.15
1735,12243.59
1736,12278.24
1737,12227.65
1738,12170.8
1739,12200.34
1740,12295.79
1741,12382.09
1742,12412.39
1743,12371.48
1744,12277.29
1745,12226.05
1746,12299.24
1747,12413.3
1748,12429.48
1749,12334.83
1750,12222.92
1751,12168.2
1752,12203.27
1753,12329.01
1754,12429.01
1755,12373.88
1756,12241.41
1757,12232.71
1758,12373.15
1759,12454.5
1760,12347.43
1761,12198.19
1762,12174.56
1763,12248.91
1764,12315.72
1765,12343.09
1766,12365.09
1767,12397.28
1768,12416.04
1769,12405.41
1770,12399.78
1771,12439.32
1772,12489.53
1773,12475.18
1774,12395.89
1775,12340.38
1776,12358.46
1777,12390.9
1778,12379.02
1779,12358.89
1780,12392.94
1781,12463.38
1782,12496.17
1783,12468.19
1784,12430.95
1785,12423.1
1786,12428.08
1787,12422.07
1788,12400.6
1789,12367.58
1790,12337.97
1791,12335.36
1792,12365.02
1793,12403.03
1794,12429.25
1795,12444.32
1796,12450.94
1797,12437.72
1798,12389.48
1799,12327.23
1800,12301.53
1801,12335.2
1802,12405.69
1803,12480.66
1804,12510.09
1805,12454.37
1806,12365.84
1807,12329.46
1808,12361.41
1809,12424.59
1810,12484.53
1811,12512.68
1812,12492.94
1813,12442.71
1814,12388.5
1815,12374.78
1816,12442.89
1817,12519.83
1818,12461.75
1819,12291.71
1820,12235.7
1821,12390.8
1822,12538.45
1823,12491.75
1824,12387.66
1825,12422.31
1826,12543.22
1827,12577.76
1828,12503.48
1829,12436.94
1830,12436.78
1831,12457.56
1832,12462.64
1833,12471.43
1834,12505.05
1835,12533.89
1836,12515.63
1837,12471.06
1838,12459.77
1839,12489.91
1840,12511.61
1841,12499.28
1842,12480.67
1843,12482.63
1844,12507.13
1845,12544.57
1846,12545.95
1847,12455.15
1848,12329.67
1849,12302.48
1850,12395.27
1851,12497.72
1852,12535.93
1853,12523.73
1854,12488.33
1855,12467.5
1856,12491.84
1857,12532.44
1858,12540.45
1859,12502.39
1860,12428.67
1861,12352.28
1862,12329.45
1863,12378.71
1864,12450.68
1865,12491.85
1866,12457.27
1867,12330.66
1868,12233.05
1869,12304.58
1870,12466.93
1871,12536.45
1872,12496.4
1873,12470.03
1874,12506.6
1875,12550.48
1876,12561.27
1877,12546.78
1878,12518.37
1879,12477.91
1880,12426.96
1881,12377.44
1882,12343.71
1883,12327.25
1884,12322.98
1885,12342.91
1886,12413.08
1887,12506.47
1888,12523.1
1889,12424.09
1890,12310.8
1891,12276.52
1892,12327.75
1893,12435.12
1894,12474.71
1895,12321.63
1896,12116.36
1897,12116.86
1898,12296.95
1899,12416.17
1900,12398.33
1901,12360.3
1902,12356.23
1903,12316.68
1904,12216.23
1905,12170.6
1906,12260.84
1907,12349.71
1908,12287.23
1909,12159.68
1910,12124.21
1911,12193.53
1912,12301.26
1913,12365.12
1914,12295.48
1915,12131.43
1916,12052.98
1917,12121.79
1918,12201.83
1919,12202.72
1920,12176.09
1921,12174.52
1922,12190.38
1923,12210.82
1924,12256.3
1925,12343.49
1926,12393.81
1927,12305.02
1928,12152.05
1929,12105.77
1930,12175.43
1931,12239.68
1932,12254.76
1933,12266.98
1934,12286.84
1935,12263.86
1936,12187.85
1937,12141.84
1938,12180.39
1939,12245.27
1940,12266.69
1941,12207.45
1942,12061.79
1943,11950.51
1944,12010.74
1945,12182.6
1946,12322.73
1947,12348.69
1948,12222.99
1949,12035.92
1950,11970.09
1951,12032.26
1952,12051.15
1953,11976.82
1954,11927.7
1955,11977.34
1956,12104.41
1957,12246.58
1958,12272.82
1959,12120.7
1960,11945.09
1961,11884.7
1962,11882.05
1963,11859.32
1964,11851.6
1965,11909.84
1966,11980.14
1967,11979.38
1968,11904.02
1969,11790.82
1970,11704.65
1971,11720.59
1972,11828.58
1973,11956.06
1974,12014.83
1975,11909.59
1976,11687.06
1977,11542.11
1978,11537.34
1979,11557.21
1980,11547.09
1981,11564
1982,11633.52
1983,11705.67
1984,11738.59
1985,11726.51
1986,11674.87
1987,11605.99
1988,11548.32
1989,11540.71
1990,11593.67
1991,11603.95
1992,11490.32
1993,11387.87
1994,11446.86
1995,11582.54
1996,11653.55
1997,11641.28
1998,11576.45
1999,11510.15
2000,11494.64
2001,11516.44
2002,11529.31
2003,11488.29
2004,11361.08
2005,11250.99
2006,11328.54
2007,11508.44
2008,11536.94
2009,11386.22
2010,11207.59
2011,11109.46
2012,11152.23
2013,11260.8
2014,11240.78
2015,11117.68
2016,11143.39
2017,11334.82
2018,11436.04
2019,11362.03
2020,11253.06
2021,11189.2
2022,11153.54
2023,11124.32
2024,11082.5
2025,11027.63
2026,10986.52
2027,10974.86
2028,10987.08
2029,10996.64
2030,10946.37
2031,10845.28
2032,10820.74
2033,10901.95
2034,10921.34
2035,10808.36
2036,10710.78
2037,10716.7
2038,10754.56
2039,10772.15
2040,10790.14
2041,10805.21
2042,10749.87
2043,10621.63
2044,10563.33
2045,10638.74
2046,10716.56
2047,10712.1
2048,10682.75
2049,10678.92
2050,10702.17
2051,10721.35
2052,10652.8
2053,10500.9
2054,10452.78
2055,10552.45
2056,10532.16
2057,10305.36
2058,10184.93
2059,10301.73
2060,10384.3
2061,10298.78
2062,10219.59
2063,10246.17
2064,10304.17
2065,10320.92
2066,10253
2067,10116.93
2068,10013.34
2069,9999.827
2070,10063.01
2071,10136.3
2072,10094.96
2073,9960.096
2074,9929.38
2075,10039.69
2076,10137.67
2077,10139.67
2078,10048.35
2079,9937.657
2080,9935.34
2081,9985.686
2082,9889.23
2083,9716.313
2084,9727.594
2085,9840.86
2086,9758.022
2087,9533.792
2088,9426.02
2089,9459.052
2090,9530.289
2091,9592.841
2092,9619.404
2093,9520.246
2094,9230.309
2095,9003.017
2096,9115.104
2097,9333.416
2098,9349.853
2099,9262.21
2100,9234.249
2101,9254.404
2102,9276.579
2103,9275.469
2104,9240.98
2105,9192.575
2106,9138.839
2107,9053.693
2108,8942.027
2109,8874.506
2110,8890.374
2111,8967.369
2112,9031.399
2113,8954.232
2114,8772.486
2115,8694.128
2116,8721.107
2117,8674.233
2118,8527.183
2119,8373.498
2120,8333.117
2121,8503.027
2122,8679.008
2123,8580.866
2124,8368.039
2125,8304.827
2126,8337.452
2127,8347.575
2128,8337.736
2129,8314.11
2130,8211.078
2131,8033.356
2132,7972.267
2133,8086.467
2134,8158.401
2135,8082.799
2136,7948.197
2137,7863.444
2138,7931.022
2139,8033.931
2140,7910.633
2141,7735.423
2142,7886.73
2143,8107.961
2144,7945.037
2145,7610.505
2146,7461.794
2147,7437.221
2148,7407.878
2149,7382.859
2150,7376.812
2151,7357.024
2152,7307.585
2153,7250.956
2154,7191.541
2155,7110.034
2156,7047.509
2157,7086.603
2158,7126.028
2159,6973.829
2160,6715.442
2161,6562.376
2162,6670.793
2163,7042.552
2164,7165.114
2165,6740.062
2166,6356.099
2167,6385.4
2168,6534.557
2169,6588.967
2170,6532.665
2171,6382.787
2172,6184.801
2173,6100.684
2174,6302.59
2175,6477.469
2176,6256.813
2177,6067.612
2178,6286.425
2179,6358.813
2180,5993.44
2181,5844.174
2182,6068.691
2183,5962.896
2184,5474.194
2185,5217.098
2186,5303.932
2187,5504.729
2188,5682.62
2189,5756.204
2190,5697.094
2191,5527.667
2192,5372.944
2193,5298.767
2194,5228.468
2195,5179.453
2196,5289.024
2197,5458.585
2198,5432.674
2199,5312.799
2200,5306.672
2201,5177.643
2202,4761.357
2203,4597.268
2204,4927.069
2205,5126.748
2206,4951.255
2207,4751.419
2208,4655.411
2209,4589.781
2210,4560.33
2211,4593.321
2212,4603.571
2213,4532.26
2214,4495.208
2215,4543.521
2216,4562.399
2217,4488.409
2218,4339.857
2219,4233.377
2220,4304.621
2221,4402.485
2222,4333.992
2223,4176.462
2224,4041.636
2225,3980.23
2226,3973.57
2227,3931.172
2228,3855.593
2229,3820.248
2230,3869.578
2231,3994.643
2232,4027.355
2233,3859.461
2234,3609.641
2235,3455.263
2236,3585.575
2237,3833.88
2238,3812.482
2239,3516.246
2240,3136.792
2241,2963.368
2242,3115.083
2243,3311.254
2244,3345.455
2245,3173.194
2246,2938.874
2247,2871.003
2248,2973.58
2249,3151.025
2250,3261.034
2251,3229.278
2252,3109.273
2253,2920.855
2254,2665.234
2255,2556.32
2256,2774.742
2257,2880.493
2258,2614.107
2259,2477.365
2260,2616.278
2261,2661.209
2262,2624.019
2263,2707.729
2264,2690.316
2265,2399.634
2266,2190.204
2267,2289.15
2268,2604.552
2269,2823.463
2270,2591.373
2271,2229.295
2272,2144.636
2273,2207.081
2274,2233.342
2275,2123.244
2276,1920.74
2277,1769.739
2278,1749.8
2279,1841.972
2280,1811.804
2281,1631.538
2282,1629.995
2283,1826.886
2284,1990.316
2285,1969.916
2286,1733.535
2287,1489.475
2288,1426.12
2289,1615.013
2290,1749.452
2291,1432.063
2292,1172.344
2293,1404.736
2294,1644.505
2295,1635.015
2296,1538.659
2297,1402.88
2298,1233.257
2299,1196.023
2300,1325.15
