400,49868.98
401,49802.61
402,49726.82
403,49666.48
404,49648.12
405,49687.64
406,49752.12
407,49794.64
408,49771.56
409,49685.4
410,49574.12
411,49476.31
412,49416.11
413,49389.76
414,49390.37
415,49409.41
416,49429.52
417,49430.49
418,49393.63
419,49325.43
420,49253.75
421,49206.84
422,49192.65
423,49176.59
424,49118.8
425,48991.93
426,48838.58
427,48725.85
428,48716.24
429,48792.41
430,48866.78
431,48850.09
432,48700.72
433,48478.36
434,48255.42
435,48094.02
436,47999.47
437,47957.24
438,47952.15
439,47957.56
440,47936.93
441,47853.81
442,47697.33
443,47508.56
444,47334.69
445,47213.3
446,47132.7
447,47065.15
448,46984.42
449,46884.9
450,46777.27
451,46672.53
452,46579.68
453,46504.06
454,46450.57
455,46418.84
456,46384.63
457,46317.04
458,46188.66
459,46014.14
460,45836.61
461,45699.06
462,45619.27
463,45576.48
464,45546.79
465,45509.56
466,45455.92
467,45379.71
468,45276.34
469,45156.1
470,45037.43
471,44938.22
472,44858.81
473,44778.2
474,44674.23
475,44537.88
476,44396.46
477,44283.32
478,44224.85
479,44201.16
480,44173.3
481,44104.38
482,43996.14
483,43885.58
484,43810.64
485,43783.91
486,43767.91
487,43719.38
488,43607.29
489,43456.09
490,43306.2
491,43194.79
492,43124.09
493,43073.77
494,43023.5
495,42966.17
496,42912.64
497,42874.99
498,42854.11
499,42817.58
500,42726.99
501,42554.25
502,42341.91
503,42162.16
504,42083.27
505,42102.42
506,42153.52
507,42168.88
508,42111.65
509,42001.56
510,41864.32
511,41723.46
512,41594.01
513,41488.8
514,41418.64
515,41375.75
516,41342.21
517,41300.45
518,41242.61
519,41171.52
520,41090.59
521,41001.93
522,40904.85
523,40798.27
524,40683.8
525,40576.16
526,40494.03
527,40452.8
528,40431.71
529,40387.23
530,40276.82
531,40098.86
532,39902.46
533,39739.61
534,39644.13
535,39605.11
536,39604.84
537,39623.64
538,39631.02
539,39593.04
540,39480.3
541,39315.46
542,39155.3
543,39055.69
544,39026.33
545,39019.03
546,38982.2
547,38888.7
548,38771.03
549,38670.48
550,38617.77
551,38591.16
552,38552.54
553,38468.5
554,38355.46
555,38260.4
556,38228.85
557,38254.68
558,38272.34
559,38213.56
560,38052.18
561,37853.19
562,37693.2
563,37627.12
564,37617.73
565,37603.3
566,37529.64
567,37406.86
568,37278.45
569,37186.14
570,37132.2
571,37081.2
572,36996.68
573,36869.96
574,36740.39
575,36651.95
576,36629.88
577,36638.55
578,36630.04
579,36564.86
580,36456.21
581,36337.95
582,36241.41
583,36165.27
584,36084.79
585,35975.6
586,35842.21
587,35725.58
588,35668.67
589,35684.02
590,35715.57
591,35698.05
592,35586.07
593,35417.04
594,35249.95
595,35136.66
596,35073.41
597,35029.61
598,34976.14
599,34909.27
600,34846.69
601,34806.28
602,34787.96
603,34765.78
604,34711.91
605,34612.03
606,34485.61
607,34357.23
608,34248.98
609,34171.86
610,34133.72
611,34138.72
612,34160.19
613,34156.05
614,34087.23
615,33965.67
616,33846.62
617,33785.36
618,33789.14
619,33797.47
620,33745.13
621,33601.64
622,33418.97
623,33260.81
624,33172.88
625,33127.28
626,33077.08
627,32983.8
628,32869.57
629,32783.52
630,32770.48
631,32815.87
632,32861.41
633,32849.38
634,32765.34
635,32646.24
636,32531.7
637,32444.46
638,32374.85
639,32309.61
640,32238.23
641,32159.02
642,32071.99
643,31979.39
644,31895.4
645,31838.15
646,31822.36
647,31830.64
648,31828.07
649,31781.58
650,31692.05
651,31589.81
652,31505.51
653,31449.06
654,31402.39
655,31345.59
656,31268.13
657,31179.32
658,31090.94
659,31012.93
660,30949.26
661,30902.54
662,30873.77
663,30854.72
664,30834.02
665,30801.19
666,30753.44
667,30692.15
668,30619.17
669,30543.15
670,30478.38
671,30438.73
672,30420.53
673,30398.2
674,30345.09
675,30250.24
676,30131.98
677,30011.79
678,29904.31
679,29804.66
680,29704.51
681,29599.49
682,29503.03
683,29433.47
684,29404.6
685,29398.29
686,29382.74
687,29329.06
688,29240.57
689,29141.25
690,29054.72
691,28992.99
692,28957.26
693,28948.04
694,28955.22
695,28954.3
696,28920.01
697,28841.01
698,28733.25
699,28615.77
700,28506.92
701,28423.23
702,28380.84
703,28386.38
704,28405.81
705,28394.28
706,28315.81
707,28190.87
708,28062.2
709,27968.93
710,27915.6
711,27887.04
712,27868.11
713,27846.82
714,27813.78
715,27760.11
716,27689.75
717,27620.88
718,27572.13
719,27550.83
720,27546.79
721,27548.4
722,27544.84
723,27526.91
724,27485.69
725,27417.77
726,27336.54
727,27258.45
728,27196.46
729,27148.54
730,27108.61
731,27070.36
732,27025.82
733,26966.46
734,26885.7
735,26794.25
736,26711.78
737,26656.03
738,26619.22
739,26575.65
740,26500.75
741,26398.35
742,26298.93
743,26233.11
744,26205.77
745,26189.72
746,26156.27
747,26097.28
748,26038.49
749,26008.54
750,26018.76
751,26042.79
752,26049.44
753,26018.4
754,25960.78
755,25893.35
756,25829.54
757,25769.93
758,25711.96
759,25653.61
760,25595.52
761,25539.26
762,25485.34
763,25427.01
764,25354.42
765,25259.6
766,25152.54
767,25053.17
768,24979.85
769,24929.61
770,24884.36
771,24826.64
772,24755.74
773,24686.04
774,24632.04
775,24599.3
776,24583.21
777,24578.61
778,24576.86
779,24564.51
780,24527.86
781,24462.38
782,24379.66
783,24292.87
784,24212.63
785,24143.97
786,24091.16
787,24056.77
788,24038.79
789,24034.38
790,24037.55
791,24031.14
792,23995.63
793,23919.39
794,23824.94
795,23744.03
796,23700.52
797,23676.07
798,23638.01
799,23560.5
800,23462.97
801,23383.66
802,23354.35
803,23352.49
804,23328.11
805,23236.97
806,23096.87
807,22963.24
808,22887.87
809,22868.16
810,22862.21
811,22829.21
812,22760.54
813,22675.17
814,22592.53
815,22523.64
816,22471.09
817,22436.86
818,22415.54
819,22393.03
820,22355.1
821,22299.62
822,22241.13
823,22195.18
824,22167.98
825,22150.95
826,22134.22
827,22110.31
828,22076.09
829,22028.96
830,21969.67
831,21906.22
832,21847.51
833,21797.88
834,21750.61
835,21697.31
836,21633.76
837,21567.48
838,21507.99
839,21462.37
840,21429.76
841,21407.68
842,21389.88
843,21355.9
844,21282.1
845,21157.08
846,21021.22
847,20928.42
848,20917.7
849,20957.51
850,20995.28
851,20986.84
852,20932.29
853,20846.64
854,20745.83
855,20651.77
856,20588.6
857,20574.61
858,20589.31
859,20596.16
860,20564.55
861,20508.11
862,20460.68
863,20451.23
864,20468.29
865,20480.21
866,20458.65
867,20406.25
868,20342.44
869,20285.34
870,20239.11
871,20199.67
872,20163.06
873,20127.73
874,20093.63
875,20060.3
876,20021.85
877,19968.74
878,19892.94
879,19807.01
880,19738.21
881,19711.97
882,19723.64
883,19745.85
884,19752.08
885,19736.82
886,19711.32
887,19686.34
888,19657.19
889,19606.31
890,19517.83
891,19411.93
892,19340.18
893,19351.58
894,19428.78
895,19494.55
896,19473.45
897,19364.86
898,19237.96
899,19161.82
900,19152.57
901,19175.48
902,19194.84
903,19195.32
904,19181.63
905,19159.37
906,19136.18
907,19121.72
908,19125.25
909,19145.83
910,19172.13
911,19192.56
912,19199.37
913,19188.69
914,19156.94
915,19101.76
916,19022.12
917,18917.59
918,18801.3
919,18700.39
920,18641.23
921,18619.44
922,18599.02
923,18544.09
924,18452.9
925,18358.43
926,18293.8
927,18261.61
928,18233.75
929,18181.96
930,18102.8
931,18017.33
932,17946.84
933,17895.7
934,17851.99
935,17803.74
936,17751.14
937,17705.88
938,17679.5
939,17672.53
940,17675.43
941,17678.52
942,17676
943,17665.54
944,17645.06
945,17615.1
946,17578.45
947,17538.06
948,17498.7
949,17466.56
950,17447.27
951,17436.89
952,17424.1
953,17398.46
954,17364.55
955,17337.97
956,17332.67
957,17338.25
958,17327.48
959,17275.94
960,17196.12
961,17124.64
962,17094.74
963,17099.99
964,17109.7
965,17096.05
966,17062.24
967,17029.09
968,17014.54
969,17009.08
970,16988.75
971,16934.12
972,16863.34
973,16812.77
974,16812.84
975,16850.17
976,16891.9
977,16908.77
978,16895.41
979,16856.23
980,16797.56
981,16737.45
982,16698.18
983,16694.73
984,16703.54
985,16688.29
986,16623.76
987,16536.74
988,16469.44
989,16451.58
990,16460.53
991,16459.9
992,16424.66
993,16371.71
994,16327.71
995,16310.84
996,16311.57
997,16314.73
998,16307
999,16280.38
1000,16227.88
1001,16150.96
1002,16072.58
1003,16018.92
1004,16002.78
1005,16007.38
1006,16012
1007,15999.88
1008,15972.22
1009,15935.38
1010,15895.68
1011,15859.23
1012,15832.1
1013,15817.64
1014,15809.97
1015,15801.18
1016,15785.91
1017,15766.33
1018,15745.99
1019,15726.15
1020,15702.33
1021,15669.21
1022,15627.08
1023,15588.45
1024,15567.34
1025,15567.3
1026,15572.7
1027,15565.99
1028,15538.81
1029,15497.14
1030,15448.19
1031,15399.18
1032,15357.34
1033,15329.59
1034,15314.96
1035,15303.6
1036,15285.81
1037,15262.63
1038,15245.1
1039,15243.62
1040,15253.67
1041,15259.18
1042,15245.46
1043,15216.43
1044,15187.81
1045,15173.46
1046,15169.4
1047,15162.39
1048,15141.19
1049,15108.19
1050,15071.47
1051,15038.62
1052,15014.61
1053,15003.54
1054,15006.98
1055,15016.04
1056,15019.18
1057,15008.77
1058,14989.68
1059,14969.25
1060,14952.45
1061,14938.45
1062,14925.54
1063,14911.63
1064,14893.86
1065,14869.43
1066,14842.34
1067,14826.68
1068,14836.73
1069,14866.51
1070,14886.51
1071,14867.78
1072,14816.56
1073,14770.73
1074,14766.25
1075,14800.68
1076,14844.97
1077,14872.39
1078,14881.13
1079,14882.48
1080,14887.16
1081,14901.85
1082,14931.62
1083,14977.32
1084,15020.58
1085,15037.52
1086,15014.67
1087,14972.65
1088,14939.07
1089,14929.03
1090,14928.14
1091,14917.78
1092,14886.58
1093,14835.61
1094,14767.46
1095,14693.92
1096,14638.46
1097,14623.79
1098,14642.59
1099,14659.7
1100,14641.69
1101,14588.54
1102,14522.79
1103,14465.45
1104,14422.72
1105,14393.6
1106,14377.11
1107,14372.31
1108,14378.33
1109,14392.62
1110,14406.66
1111,14410.58
1112,14397.95
1113,14370.87
1114,14332.79
1115,14292.07
1116,14265.44
1117,14269.81
1118,14301.73
1119,14333.48
1120,14337.28
1121,14307.01
1122,14254.46
1123,14192.11
1124,14133.96
1125,14094.88
1126,14085.36
1127,14088.79
1128,14078.3
1129,14035.98
1130,13979.29
1131,13934.44
1132,13915.23
1133,13903.98
1134,13878.24
1135,13829.59
1136,13773.15
1137,13726.01
1138,13697.59
1139,13688.74
1140,13699.26
1141,13720.89
1142,13739.33
1143,13742.07
1144,13732.17
1145,13720.28
1146,13714.58
1147,13710.94
1148,13701.47
1149,13682.02
1150,13659.76
1151,13643.91
1152,13637.23
1153,13630.26
1154,13612.54
1155,13584.76
1156,13561.14
1157,13555.65
1158,13566.22
1159,13578.39
1160,13579.71
1161,13576.55
1162,13584.42
1163,13614.36
1164,13656.18
1165,13693.44
1166,13714.43
1167,13720.53
1168,13715.45
1169,13706.6
1170,13707.7
1171,13732.06
1172,13768.6
1173,13780.86
1174,13736.41
1175,13662.01
1176,13622.26
1177,13666.1
1178,13742.13
1179,13760.75
1180,13667.45
1181,13529.97
1182,13442.21
1183,13448.91
1184,13496.34
1185,13520.25
1186,13497.6
1187,13454.35
1188,13417.53
1189,13390.46
1190,13359.6
1191,13313.18
1192,13254.06
1193,13191.13
1194,13132.43
1195,13082.76
1196,13046.19
1197,13025
1198,13017.86
1199,13022.77
1200,13029.92
1201,13020.41
1202,12977.7
1203,12920.96
1204,12893.51
1205,12928.62
1206,12994.98
1207,13036.88
1208,13018.58
1209,12968.7
1210,12928.55
1211,12922.64
1212,12946.1
1213,12990.92
1214,13044.69
1215,13090.68
1216,13113.57
1217,13112.95
1218,13096.57
1219,13072.36
1220,13048.84
1221,13034.63
1222,13032.52
1223,13031.29
1224,13017.94
1225,12988.99
1226,12953.23
1227,12919.66
1228,12888.83
1229,12855.44
1230,12815.84
1231,12777.24
1232,12750.87
1233,12742.8
1234,12743.87
1235,12742.17
1236,12731.16
1237,12712.43
1238,12688.36
1239,12662.37
1240,12638.79
1241,12622.01
1242,12616.66
1243,12627.47
1244,12655.37
1245,12688.83
1246,12713.8
1247,12722.06
1248,12715.02
1249,12695.15
1250,12668.61
1251,12644.69
1252,12631.83
1253,12631.68
1254,12642.97
1255,12662.37
1256,12679.97
1257,12684.62
1258,12673.43
1259,12656.64
1260,12645.09
1261,12639.61
1262,12632.91
1263,12619.67
1264,12608.78
1265,12614.74
1266,12644.75
1267,12684.45
1268,12715.73
1269,12730.06
1270,12732.24
1271,12727.97
1272,12721.41
1273,12715.62
1274,12712.75
1275,12710.33
1276,12704.32
1277,12694.76
1278,12691.11
1279,12703.79
1280,12731.84
1281,12761.59
1282,12779.57
1283,12780.38
1284,12762.95
1285,12729.89
1286,12697.75
1287,12686.27
1288,12700.82
1289,12722.39
1290,12730.51
1291,12720.88
1292,12702.16
1293,12683.27
1294,12672.2
1295,12676.59
1296,12697.82
1297,12721.49
1298,12731.06
1299,12719.03
1300,12688.15
1301,12642.62
1302,12594.32
1303,12559.12
1304,12547.5
1305,12550.69
1306,12555.71
1307,12552.87
1308,12537.54
1309,12506.64
1310,12472.3
1311,12457.1
1312,12477.56
1313,12520.58
1314,12564.37
1315,12595.47
1316,12616.55
1317,12631.97
1318,12643.31
1319,12649.82
1320,12651.11
1321,12649.49
1322,12648.27
1323,12652.36
1324,12670.35
1325,12710.62
1326,12764.15
1327,12804.45
1328,12809.49
1329,12794.26
1330,12789.63
1331,12812.64
1332,12843.15
1333,12855.77
1334,12852.38
1335,12865.19
1336,12921.75
1337,13000.4
1338,13056.32
1339,13060.67
1340,13031.16
1341,12993.56
1342,12964.24
1343,12948.51
1344,12949.1
1345,12952.69
1346,12938.17
1347,12895.23
1348,12845.33
1349,12815.2
1350,12814.22
1351,12831.64
1352,12856.46
1353,12884.97
1354,12916.91
1355,12949.81
1356,12975.1
1357,12983.41
1358,12972.69
1359,12948.89
1360,12919.36
1361,12898.15
1362,12902.25
1363,12938.97
1364,12991.37
1365,13039.04
1366,13068.34
1367,13072.24
1368,13047.8
1369,13015.45
1370,13004.33
1371,13027.23
1372,13062.25
1373,13084.44
1374,13092.82
1375,13106.07
1376,13138.03
1377,13176.12
1378,13199.84
1379,13198.08
1380,13175.78
1381,13140.4
1382,13110.66
1383,13112.62
1384,13161.05
1385,13228.65
1386,13278.89
1387,13294.16
1388,13281.56
1389,13250.53
1390,13215.99
1391,13195.55
1392,13195.65
1393,13193.5
1394,13162.75
1395,13103.47
1396,13040.79
1397,12996.8
1398,12971.56
1399,12957.71
1400,12951.46
1401,12955.47
1402,12971.7
1403,12985.7
1404,12972.37
1405,12920.86
1406,12870.55
1407,12870.3
1408,12922.37
1409,12973.88
1410,12978.76
1411,12960.04
1412,12969.33
1413,13030.93
1414,13110.94
1415,13170.11
1416,13200.23
1417,13216.14
1418,13231.25
1419,13251.09
1420,13278.99
1421,13307.03
1422,13312.98
1423,13279.17
1424,13227.01
1425,13194.83
1426,13199.58
1427,13212.34
1428,13200.88
1429,13169.36
1430,13148.47
1431,13158.1
1432,13176.64
1433,13173.69
1434,13142.58
1435,13104.27
1436,13078.63
1437,13068.79
1438,13071.5
1439,13084.56
1440,13107.73
1441,13139.68
1442,13165.17
1443,13160.45
1444,13116.33
1445,13065.98
1446,13048.45
1447,13065.51
1448,13084.62
1449,13080.07
1450,13063.43
1451,13056.58
1452,13066.67
1453,13080.9
1454,13087.65
1455,13093.8
1456,13114.12
1457,13152.45
1458,13190.93
1459,13210.68
1460,13209.93
1461,13197.58
1462,13182.61
1463,13173.54
1464,13178.08
1465,13189.22
1466,13187.23
1467,13161.73
1468,13142.03
1469,13166.29
1470,13231.17
1471,13284.69
1472,13284.08
1473,13255.39
1474,13248.44
1475,13280.03
1476,13315.65
1477,13321.98
1478,13310.47
1479,13313.53
1480,13343.97
1481,13374.73
1482,13377.52
1483,13363.29
1484,13366.72
1485,13404.35
1486,13444.67
1487,13450.4
1488,13414.21
1489,13351.34
1490,13279.15
1491,13219.75
1492,13195.07
1493,13201.35
1494,13211.3
1495,13203.53
1496,13184.28
1497,13166.56
1498,13158.52
1499,13163.05
1500,13180.2
1501,13197.65
1502,13199.71
1503,13184.75
1504,13168.84
1505,13166.46
1506,13176.7
1507,13193.28
1508,13211.83
1509,13230.69
1510,13248.6
1511,13265.69
1512,13282.57
1513,13297.31
1514,13304.01
1515,13299.43
1516,13301.8
1517,13338.25
1518,13403.2
1519,13435.51
1520,13381.95
1521,13293.1
1522,13267.01
1523,13340.02
1524,13437.38
1525,13481.9
1526,13471.58
1527,13440.55
1528,13416.15
1529,13412.73
1530,13439.81
1531,13478.87
1532,13497.85
1533,13489.08
1534,13490.06
1535,13535.62
1536,13598.3
1537,13620.78
1538,13580.09
1539,13515.64
1540,13469.13
1541,13448.14
1542,13444.36
1543,13453.4
1544,13477.78
1545,13517.63
1546,13551.09
1547,13546.98
1548,13506.02
1549,13479.93
1550,13514.81
1551,13588.12
1552,13650.01
1553,13671.2
1554,13652.53
1555,13600.32
1556,13538.65
1557,13497.65
1558,13489.39
1559,13502.58
1560,13526.04
1561,13556.96
1562,13595.14
1563,13639.76
1564,13689.36
1565,13740.36
1566,13780.66
1567,13796.84
1568,13795.89
1569,13804.29
1570,13840.83
1571,13895.08
1572,13950.43
1573,13991.85
1574,14005.57
1575,13989.86
1576,13975.88
1577,13997.3
1578,14051.07
1579,14110.72
1580,14152.94
1581,14162.2
1582,14129.06
1583,14087.04
1584,14090.68
1585,14151.02
1586,14206.75
1587,14202.38
1588,14161.19
1589,14135.32
1590,14140.35
1591,14145.82
1592,14131.5
1593,14135.55
1594,14208.65
1595,14325.63
1596,14390.27
1597,14349.47
1598,14293.33
1599,14330.23
1600,14445.8
1601,14542.34
1602,14562.66
1603,14541.11
1604,14522.71
1605,14540.8
1606,14622.69
1607,14764.64
1608,14916.41
1609,15030.5
1610,15094.13
1611,15106.94
1612,15101.08
1613,15142.04
1614,15260.33
1615,15366.21
1616,15354.62
1617,15242.97
1618,15132.55
1619,15075.29
1620,15016.21
1621,14900.25
1622,14770.09
1623,14709.67
1624,14720.2
1625,14692.33
1626,14546.46
1627,14364.72
1628,14266.59
1629,14263.36
1630,14275.27
1631,14249.8
1632,14210.69
1633,14191.33
1634,14205.33
1635,14255.77
1636,14321.22
1637,14343.81
1638,14280.76
1639,14175.67
1640,14095.66
1641,14066.69
1642,14078.05
1643,14109.16
1644,14117.5
1645,14065.85
1646,13994.88
1647,13983.97
1648,14048.5
1649,14110.42
1650,14106.05
1651,14068.17
1652,14053.39
1653,14071.64
1654,14094.94
1655,14101.85
1656,14088.53
1657,14055.22
1658,14013.91
1659,13981.7
1660,13972.67
1661,13997.11
1662,14053.18
1663,14097.63
1664,14083.81
1665,14031.6
1666,14003.12
1667,14030.94
1668,14095.5
1669,14170.48
1670,14222.07
1671,14216.41
1672,14165.62
1673,14121.96
1674,14118.5
1675,14139.86
1676,14167.04
1677,14204.62
1678,14266.03
1679,14327
1680,14320.57
1681,14217.85
1682,14113.75
1683,14112.33
1684,14180.45
1685,14212.01
1686,14174.04
1687,14136.63
1688,14155.52
1689,14202.41
1690,14232.18
1691,14236.95
1692,14232.82
1693,14233.53
1694,14248.24
1695,14276.39
1696,14276.16
1697,14201.21
1698,14101.56
1699,14096.74
1700,14215.55
1701,14319.64
1702,14292.45
1703,14211.33
1704,14204.36
1705,14269.59
1706,14303.95
1707,14254.42
1708,14168.56
1709,14100.6
1710,14080.27
1711,14126.54
1712,14208.56
1713,14256.4
1714,14245.18
1715,14237.65
1716,14288.71
1717,14365.4
1718,14410.87
1719,14417.23
1720,14413.69
1721,14413.97
1722,14402.26
1723,14366.55
1724,14325.94
1725,14307.69
1726,14328.86
1727,14398.95
1728,14491.47
1729,14522.63
1730,14438.51
1731,14323.61
1732,14286.62
1733,14328.98
1734,14388.08
1735,14418.51
1736,14399.78
1737,14335.03
1738,14297.69
1739,14359.97
1740,14466.07
1741,14500.89
1742,14451.39
1743,14417.5
1744,14458.45
1745,14517.25
1746,14531.92
1747,14519.27
1748,14523.67
1749,14550.43
1750,14571.91
1751,14572.07
1752,14558.36
1753,14538.31
1754,14508.79
1755,14465.52
1756,14422.79
1757,14405.84
1758,14420.02
1759,14444.23
1760,14466.62
1761,14507.34
1762,14582.29
1763,14638.59
1764,14600.14
1765,14498.96
1766,14463.32
1767,14540.28
1768,14617.78
1769,14598.4
1770,14521.07
1771,14455.6
1772,14422.71
1773,14415.02
1774,14428.91
1775,14465.53
1776,14517.62
1777,14556.66
1778,14559.13
1779,14547.07
1780,14555.86
1781,14590.54
1782,14634.15
1783,14656.29
1784,14608.1
1785,14479.91
1786,14382.21
1787,14421.48
1788,14532.77
1789,14589.6
1790,14578.68
1791,14577.14
1792,14618.17
1793,14661.54
1794,14673.1
1795,14659.12
1796,14632.53
1797,14596.34
1798,14549.83
1799,14499.53
1800,14458.03
1801,14439.38
1802,14459.66
1803,14519.67
1804,14571.61
1805,14568.97
1806,14536.88
1807,14526.85
1808,14551.2
1809,14592.03
1810,14639.03
1811,14694.03
1812,14751.18
1813,14780.74
1814,14759.9
1815,14728.26
1816,14740.16
1817,14764.84
1818,14717.83
1819,14604.17
1820,14538.13
1821,14578.87
1822,14647.45
1823,14667.87
1824,14658.52
1825,14658.57
1826,14666.22
1827,14660.27
1828,14651.39
1829,14679.27
1830,14739.48
1831,14753.27
1832,14679
1833,14608.42
1834,14633.32
1835,14700.17
1836,14712.35
1837,14675.72
1838,14659.94
1839,14673.81
1840,14657.39
1841,14603.71
1842,14616.03
1843,14751.97
1844,14864.34
1845,14798.23
1846,14643.11
1847,14575.36
1848,14627.46
1849,14731.74
1850,14819.54
1851,14823.93
1852,14735.3
1853,14657.82
1854,14673.57
1855,14740.35
1856,14797.81
1857,14841.01
1858,14881.96
1859,14882.21
1860,14775.13
1861,14615.75
1862,14587.84
1863,14736.67
1864,14854.07
1865,14797.29
1866,14691.53
1867,14674.52
1868,14698.97
1869,14675.13
1870,14655.36
1871,14757.12
1872,14931.28
1873,14990.7
1874,14883.92
1875,14746.71
1876,14674.75
1877,14649.81
1878,14641.03
1879,14624.95
1880,14586.84
1881,14554.12
1882,14565.47
1883,14618.87
1884,14688.25
1885,14737.64
1886,14723.79
1887,14661.7
1888,14646
1889,14713.69
1890,14767.67
1891,14728.68
1892,14633.87
1893,14541.7
1894,14494.78
1895,14523.55
1896,14597.42
1897,14657.19
1898,14684.9
1899,14694.21
1900,14687.83
1901,14655.2
1902,14599.44
1903,14547.99
1904,14528.57
1905,14563.53
1906,14655.27
1907,14732.85
1908,14723.26
1909,14646.57
1910,14556.53
1911,14503.17
1912,14530.15
1913,14613.94
1914,14679.92
1915,14688.5
1916,14641.03
1917,14571.04
1918,14559.07
1919,14626.1
1920,14649.97
1921,14548.99
1922,14437.36
1923,14437.07
1924,14516.76
1925,14601.5
1926,14630.28
1927,14559.35
1928,14465.08
1929,14485.88
1930,14603.79
1931,14675.3
1932,14648.83
1933,14579.05
1934,14505.63
1935,14437.22
1936,14393.97
1937,14424.73
1938,14536.68
1939,14609.78
1940,14545.93
1941,14420.27
1942,14338.65
1943,14343.97
1944,14445.06
1945,14552.72
1946,14547.02
1947,14453.81
1948,14381.86
1949,14368.89
1950,14395.4
1951,14426.36
1952,14414.04
1953,14369.35
1954,14379.75
1955,14468.43
1956,14542.06
1957,14541.46
1958,14505.63
1959,14464.95
1960,14389.79
1961,14262.73
1962,14148.36
1963,14113.22
1964,14145.15
1965,14207.05
1966,14250.68
1967,14230.26
1968,14153.58
1969,14054.77
1970,13978.49
1971,13969.69
1972,13993.46
1973,13964.26
1974,13926.16
1975,14030.92
1976,14240.64
1977,14316.38
1978,14207.51
1979,14115.56
1980,14112.33
1981,14045.13
1982,13872.15
1983,13791.15
1984,13906.05
1985,14056.16
1986,14118.98
1987,14166.42
1988,14252.27
1989,14273.83
1990,14150.53
1991,13999.93
1992,13948.5
1993,13955.35
1994,13943.78
1995,13892.32
1996,13809.04
1997,13772.49
1998,13859.12
1999,13937.75
2000,13823.81
2001,13647.38
2002,13663.56
2003,13809.59
2004,13860.06
2005,13794.94
2006,13720.38
2007,13665.86
2008,13608.34
2009,13578.46
2010,13645.88
2011,13802.28
2012,13968.79
2013,14032.66
2014,13859.88
2015,13533.74
2016,13357.6
2017,13412.26
2018,13516.52
2019,13545.15
2020,13461.28
2021,13334.85
2022,13364.57
2023,13553.1
2024,13620.06
2025,13484.68
2026,13392.59
2027,13449.83
2028,13501.87
2029,13451.24
2030,13333.37
2031,13228.03
2032,13268.25
2033,13437.31
2034,13441.7
2035,13193.3
2036,13038.39
2037,13153.64
2038,13300.81
2039,13311.97
2040,13248.72
2041,13169.59
2042,13074.14
2043,12960.43
2044,12837.67
2045,12740.89
2046,12753.83
2047,12878.86
2048,12942.53
2049,12876.8
2050,12867.55
2051,12997.76
2052,13085.82
2053,13015.99
2054,12862.66
2055,12714.24
2056,12643.09
2057,12659
2058,12659.48
2059,12593.11
2060,12521.77
2061,12498.59
2062,12540.46
2063,12615.13
2064,12616.67
2065,12515.66
2066,12412.71
2067,12380.77
2068,12432.84
2069,12490.32
2070,12359.71
2071,12082.48
2072,12008.86
2073,12186.85
2074,12280.15
2075,12194.59
2076,12130.15
2077,12172.32
2078,12268.98
2079,12315.56
2080,12176.38
2081,11945.33
2082,11897.48
2083,12009.41
2084,12034.82
2085,11951.39
2086,11888.81
2087,11851.24
2088,11774.32
2089,11722.4
2090,11803.93
2091,11883.11
2092,11745.28
2093,11486.48
2094,11311.46
2095,11257.7
2096,11293.23
2097,11354.41
2098,11375.88
2099,11331.01
2100,11229.02
2101,11173.27
2102,11223.86
2103,11234.25
2104,11111.33
2105,11011.49
2106,11034.35
2107,11062.66
2108,11028.75
2109,11010.95
2110,11037.42
2111,11034.86
2112,10983.92
2113,10944.01
2114,10901.89
2115,10766.99
2116,10578.65
2117,10487.15
2118,10518.58
2119,10597.97
2120,10580.18
2121,10332.95
2122,10158.34
2123,10442.27
2124,10775.66
2125,10615.99
2126,10269.02
2127,10154.57
2128,10150.22
2129,10097.23
2130,10102.76
2131,10195.12
2132,10118.47
2133,9836.521
2134,9760.689
2135,9974.955
2136,10062.87
2137,9924.383
2138,9822.563
2139,9769.793
2140,9578.952
2141,9336.899
2142,9278.294
2143,9379.371
2144,9506.692
2145,9628.786
2146,9728.101
2147,9687.988
2148,9440.443
2149,9150.208
2150,8968.052
2151,8910.242
2152,8949.349
2153,9016.323
2154,9058.067
2155,9047.592
2156,8986.649
2157,8902.3
2158,8827.185
2159,8791.03
2160,8774.175
2161,8732.602
2162,8620.653
2163,8433.23
2164,8321.677
2165,8349.44
2166,8251.548
2167,7952.217
2168,7817.547
2169,7965.572
2170,8131.998
2171,8143.059
2172,7950.705
2173,7716.94
2174,7689.903
2175,7759.545
2176,7710.204
2177,7602.146
2178,7534.92
2179,7465.847
2180,7369.259
2181,7315.088
2182,7328.668
2183,7353.328
2184,7334.216
2185,7233.309
2186,7119.199
2187,7100.45
2188,7058.983
2189,6858.475
2190,6742.897
2191,6878.797
2192,6894.169
2193,6616.983
2194,6425.088
2195,6520.603
2196,6803.17
2197,6968.906
2198,6650.462
2199,6250.034
2200,6376.081
2201,6578.875
2202,6349.749
2203,6117.466
2204,6184.804
2205,6232.071
2206,6114.083
2207,5995.624
2208,5971.792
2209,6046.144
2210,6058.896
2211,5834.86
2212,5525.68
2213,5344.669
2214,5390.119
2215,5585.763
2216,5596.86
2217,5356.722
2218,5110.318
2219,5024.917
2220,5158.876
2221,5266.462
2222,5102.749
2223,4872.386
2224,4801.095
2225,4933.554
2226,5103.204
2227,4940.776
2228,4602.768
2229,4570.766
2230,4678.785
2231,4599.307
2232,4546.42
2233,4684.107
2234,4758.719
2235,4664.116
2236,4551.924
2237,4434.442
2238,4235.108
2239,4103.033
2240,4166.763
2241,4095.001
2242,3772.912
2243,3747.484
2244,4049.396
2245,4055.667
2246,3795.797
2247,3697.144
2248,3777.804
2249,3889.881
2250,3854.022
2251,3645.281
2252,3498.933
2253,3461.542
2254,3397.576
2255,3331.457
2256,3327.248
2257,3247.278
2258,3065.107
2259,3109.643
2260,3320.014
2261,3167.031
2262,2769.573
2263,2613.428
2264,2775.698
2265,3083.193
2266,3078.052
2267,2712.501
2268,2547.307
2269,2627.306
2270,2631.261
2271,2599.567
2272,2657.552
2273,2749.584
2274,2752.254
2275,2514.064
2276,2245.721
2277,2347.995
2278,2553.303
2279,2512.348
2280,2465.271
2281,2525.825
2282,2456.636
2283,2220.083
2284,1961.569
2285,1852.301
2286,1961.836
2287,2048.602
2288,2013.605
2289,2019.944
2290,2051.347
2291,1980.857
2292,1835.999
2293,1679.056
2294,1527.433
2295,1363.423
2296,1161.06
2297,1146.017
2298,1530.444
2299,1854.777
2300,1776.424
