400,43598.7
401,43543.82
402,43437.52
403,43324.93
404,43256.65
405,43267.94
406,43323.86
407,43369.21
408,43352.5
409,43273.25
410,43170.3
411,43083.16
412,43033.69
413,43009.8
414,42995.58
415,42977.75
416,42956.7
417,42937.4
418,42924.06
419,42909.12
420,42874.93
421,42803.75
422,42697.03
423,42596.5
424,42548.72
425,42587.31
426,42673.1
427,42741.38
428,42730.79
429,42636.98
430,42505.68
431,42383.98
432,42298.62
433,42233.09
434,42165.41
435,42078.91
436,41986.63
437,41911.96
438,41876.51
439,41871.81
440,41863.59
441,41817.11
442,41720.84
443,41610.44
444,41527.09
445,41500.28
446,41498.88
447,41472.16
448,41373.38
449,41214.08
450,41051.6
451,40943.9
452,40914.49
453,40924.41
454,40928.29
455,40887.91
456,40796.81
457,40657.5
458,40474.46
459,40277.68
460,40114.38
461,40031.17
462,40035.19
463,40073.26
464,40087.32
465,40036.79
466,39944.1
467,39845.96
468,39775.12
469,39728.83
470,39684.84
471,39621.26
472,39530.85
473,39424.25
474,39313.08
475,39208.47
476,39120.21
477,39057.8
478,39027.02
479,39008.51
480,38972.65
481,38891.45
482,38767.66
483,38632.11
484,38516.36
485,38435.61
486,38372.65
487,38306.48
488,38221.61
489,38127.25
490,38039.73
491,37973.9
492,37928.67
493,37892.6
494,37854.29
495,37807.43
496,37752.75
497,37691.45
498,37623.4
499,37544.42
500,37449.61
501,37336.43
502,37218.46
503,37116.04
504,37048.5
505,37016.96
506,37006.37
507,37001.16
508,36986.13
509,36946.71
510,36868.41
511,36745.04
512,36603.54
513,36479.11
514,36402.31
515,36361.77
516,36323.23
517,36253.43
518,36149.71
519,36043.21
520,35966.6
521,35933.9
522,35917.23
523,35883.13
524,35806.05
525,35698.88
526,35586.07
527,35489.94
528,35409.64
529,35329.68
530,35234.81
531,35122.27
532,35004.91
533,34896.47
534,34808.09
535,34744.66
536,34710.04
537,34703.02
538,34695.6
539,34651.11
540,34537.51
541,34375.73
542,34221.46
543,34129.44
544,34108.89
545,34111.85
546,34086.98
547,34005.85
548,33895.75
549,33792.25
550,33723.33
551,33679.64
552,33640.15
553,33585.94
554,33519.95
555,33458.57
556,33417.7
557,33394.28
558,33363.5
559,33299.5
560,33193.03
561,33070.64
562,32963.44
563,32894.55
564,32853.19
565,32819.54
566,32775.7
567,32719.71
568,32657.97
569,32596.58
570,32534.83
571,32465.53
572,32381.35
573,32283.46
574,32187.79
575,32111.65
576,32063.96
577,32026.42
578,31975.21
579,31891.88
580,31791.69
581,31703.11
582,31652.03
583,31631.18
584,31609.52
585,31556.3
586,31465.83
587,31364.03
588,31278.67
589,31222.13
590,31172.13
591,31101.71
592,30992.61
593,30862.8
594,30739.69
595,30647.83
596,30589.71
597,30557.15
598,30541.56
599,30527.65
600,30494.46
601,30421.41
602,30310.74
603,30197.48
604,30119
605,30091.8
606,30080.02
607,30039.85
608,29941.83
609,29821.11
610,29731.07
611,29716.49
612,29751.18
613,29773.33
614,29724.49
615,29604.13
616,29460.88
617,29344.08
618,29275.16
619,29236.25
620,29206.59
621,29170.65
622,29125.19
623,29068.74
624,29000.67
625,28923.6
626,28841.05
627,28757.35
628,28683.36
629,28632.8
630,28617.48
631,28623
632,28615.61
633,28562.19
634,28457.96
635,28331.83
636,28214.44
637,28125.48
638,28063.69
639,28025.42
640,28004.64
641,27987.64
642,27959.22
643,27907.73
644,27840.48
645,27771.1
646,27711.57
647,27658.57
648,27600.37
649,27525.99
650,27438.5
651,27353.12
652,27285.16
653,27238.75
654,27202.99
655,27166
656,27121.14
657,27072.82
658,27026.8
659,26987.36
660,26953.54
661,26923.3
662,26894.15
663,26860.95
664,26817.66
665,26758.97
666,26685.87
667,26602.82
668,26514.28
669,26424.79
670,26339.03
671,26261.52
672,26194.33
673,26136.37
674,26086.39
675,26042.88
676,26003.86
677,25967.31
678,25930.21
679,25886.57
680,25829.95
681,25756.77
682,25676.5
683,25602.2
684,25544.26
685,25494.68
686,25437.54
687,25358.69
688,25264.02
689,25172.27
690,25101.65
691,25057.95
692,25035.37
693,25027.5
694,25021.4
695,24995.17
696,24926.58
697,24813.03
698,24690.36
699,24598.76
700,24562.88
701,24562.98
702,24571.41
703,24563.97
704,24530.85
705,24466.13
706,24367.43
707,24255.07
708,24158.29
709,24103.24
710,24086.18
711,24086.4
712,24083.7
713,24067.84
714,24036.57
715,23988.03
716,23924.31
717,23851.98
718,23777.77
719,23707.94
720,23647.99
721,23603.36
722,23575.66
723,23558.41
724,23544.12
725,23525.74
726,23497.68
727,23454.58
728,23392.97
729,23317.2
730,23233.73
731,23149.12
732,23070.44
733,23005
734,22958.87
735,22927.43
736,22900.53
737,22868.35
738,22825.61
739,22770.18
740,22700.37
741,22621.18
742,22543.94
743,22479.92
744,22431.75
745,22391.37
746,22350.13
747,22302.5
748,22248.11
749,22187.07
750,22122.63
751,22064.82
752,22024.56
753,22007.17
754,22001.76
755,21994.55
756,21973.98
757,21936.95
758,21882.45
759,21811.62
760,21736.92
761,21674.44
762,21637.34
763,21618.5
764,21602.13
765,21574.19
766,21537.13
767,21502.57
768,21480.9
769,21465.31
770,21436.8
771,21377.27
772,21289.48
773,21194.95
774,21115.11
775,21052.78
776,20989.76
777,20907.27
778,20808.08
779,20725.37
780,20694.17
781,20723.87
782,20778.57
783,20818.03
784,20814.03
785,20764.76
786,20672
787,20545.73
788,20418.86
789,20328.08
790,20297.26
791,20306.04
792,20324.51
793,20327.28
794,20308.21
795,20266.47
796,20203
797,20128.65
798,20057.55
799,20002.32
800,19965.39
801,19944.99
802,19937.67
803,19926.11
804,19885.96
805,19796.35
806,19673.3
807,19555.21
808,19478.22
809,19445.84
810,19437.89
811,19434.36
812,19426.07
813,19413.13
814,19395.84
815,19371.87
816,19336.29
817,19284.24
818,19216.91
819,19142.56
820,19069.84
821,19007.27
822,18963.18
823,18945.67
824,18950.94
825,18956.11
826,18936.85
827,18882.6
828,18808.22
829,18731.24
830,18664.36
831,18610.13
832,18569.79
833,18542.01
834,18519.17
835,18492.73
836,18457.09
837,18414.95
838,18370.42
839,18327.51
840,18289.88
841,18261.1
842,18242.63
843,18228.2
844,18209.74
845,18180.46
846,18138.66
847,18084.02
848,18018.51
849,17955.01
850,17909.62
851,17893.65
852,17892.55
853,17883.22
854,17846.95
855,17791.64
856,17735.09
857,17691.76
858,17653.6
859,17603.21
860,17527.51
861,17445.71
862,17391.74
863,17393.8
864,17432.66
865,17465.43
866,17453.92
867,17403.79
868,17344.5
869,17302.81
870,17276.96
871,17248.4
872,17200.62
873,17141.06
874,17092.32
875,17074.51
876,17075.52
877,17061.62
878,17002.13
879,16911.79
880,16837.75
881,16824.08
882,16862.09
883,16903.15
884,16900.75
885,16854.53
886,16800.87
887,16775.01
888,16778.25
889,16783.54
890,16764.44
891,16719.09
892,16667.04
893,16627.8
894,16607.73
895,16601.34
896,16602.56
897,16602.34
898,16588.84
899,16550.83
900,16491.85
901,16429.62
902,16381.64
903,16350.53
904,16324.18
905,16290.41
906,16247.84
907,16205.88
908,16174.08
909,16154.42
910,16141.28
911,16128.74
912,16112.75
913,16091.13
914,16061.8
915,16023.23
916,15974.42
917,15914.69
918,15849.38
919,15790.18
920,15748.48
921,15724.32
922,15705.98
923,15681.5
924,15644.34
925,15593.53
926,15528.7
927,15458.57
928,15400.92
929,15373.02
930,15372.42
931,15377.15
932,15365.3
933,15331.91
934,15288.44
935,15246.73
936,15213.32
937,15189.81
938,15177.08
939,15166.74
940,15141.89
941,15086.64
942,15009.11
943,14938.62
944,14903.57
945,14905.25
946,14921.95
947,14932.27
948,14931.25
949,14927.28
950,14928.42
951,14932.22
952,14928.08
953,14906.14
954,14869.41
955,14830.35
956,14800.66
957,14779.53
958,14757.51
959,14725.84
960,14685.8
961,14645.21
962,14611.81
963,14591.02
964,14586.9
965,14602
966,14624.44
967,14634.12
968,14613.2
969,14564.12
970,14500.05
971,14434.11
972,14378.53
973,14345.09
974,14342.64
975,14358.59
976,14370.87
977,14360.94
978,14333.89
979,14304.37
980,14284.2
981,14268.57
982,14246.57
983,14210.46
984,14169.45
985,14138.32
986,14127.4
987,14125.89
988,14116.79
989,14088.34
990,14050.85
991,14020.43
992,14007.92
993,14004.58
994,13997.14
995,13975.02
996,13936.37
997,13881.15
998,13813.04
999,13746.46
1000,13697.69
1001,13675.22
1002,13667.86
1003,13661.39
1004,13647.2
1005,13629.1
1006,13612.57
1007,13601.49
1008,13592.56
1009,13580.39
1010,13561.61
1011,13540.81
1012,13524.56
1013,13515.71
1014,13504.26
1015,13477.47
1016,13430.64
1017,13382.94
1018,13357.9
1019,13367.44
1020,13394.03
1021,13415.6
1022,13418.58
1023,13407.77
1024,13390.34
1025,13371.37
1026,13352
1027,13332.96
1028,13314.09
1029,13293.84
1030,13270.58
1031,13242.84
1032,13209.4
1033,13169.27
1034,13127.49
1035,13095.78
1036,13085.45
1037,13092.69
1038,13099.69
1039,13089.22
1040,13060.81
1041,13026.88
1042,12999.68
1043,12986.08
1044,12989.49
1045,13011.75
1046,13041
1047,13058.42
1048,13048.83
1049,13022.57
1050,13000.54
1051,12998.64
1052,13006.5
1053,13005.04
1054,12980.81
1055,12943.28
1056,12907.86
1057,12886.69
1058,12881.66
1059,12892.57
1060,12914.08
1061,12928.06
1062,12914.57
1063,12868.92
1064,12815.6
1065,12782.07
1066,12778.56
1067,12789.64
1068,12798.14
1069,12798.15
1070,12796.78
1071,12801.56
1072,12813.52
1073,12827.88
1074,12840.16
1075,12852.74
1076,12872.67
1077,12905.86
1078,12946.89
1079,12984.39
1080,13009.84
1081,13032.95
1082,13070.53
1083,13132.38
1084,13196.11
1085,13230.14
1086,13214.57
1087,13167.8
1088,13116.05
1089,13078.62
1090,13058.53
1091,13056.28
1092,13065.92
1093,13070.19
1094,13051.15
1095,13005.35
1096,12947.71
1097,12893.83
1098,12850.25
1099,12815
1100,12785.81
1101,12759.86
1102,12734.03
1103,12705.22
1104,12670.55
1105,12627.25
1106,12575.61
1107,12532.45
1108,12520.08
1109,12550.38
1110,12597.32
1111,12626.34
1112,12618.31
1113,12592.38
1114,12573.33
1115,12572.76
1116,12579.83
1117,12581.74
1118,12573.48
1119,12559.35
1120,12543.79
1121,12524.78
1122,12495
1123,12448.56
1124,12395.16
1125,12353.4
1126,12337.26
1127,12331.63
1128,12310.39
1129,12256.5
1130,12188.87
1131,12135.27
1132,12110
1133,12092.94
1134,12058.82
1135,11999.98
1136,11938.38
1137,11898.16
1138,11886
1139,11889.07
1140,11893.83
1141,11891.28
1142,11875.82
1143,11844.11
1144,11810.67
1145,11798.68
1146,11823.18
1147,11858.99
1148,11868.62
1149,11830.97
1150,11774.44
1151,11736.49
1152,11733.49
1153,11741.94
1154,11734.59
1155,11705.7
1156,11675.51
1157,11664
1158,11663.94
1159,11647.07
1160,11589.87
1161,11511.67
1162,11452.69
1163,11444.19
1164,11474.98
1165,11521.37
1166,11562.36
1167,11584.29
1168,11575.02
1169,11538.16
1170,11503.89
1171,11503.56
1172,11535.34
1173,11562.97
1174,11551.75
1175,11503.33
1176,11442.55
1177,11392.57
1178,11363.84
1179,11361.96
1180,11385.56
1181,11409.03
1182,11401.6
1183,11351.68
1184,11286.03
1185,11235.44
1186,11212.95
1187,11210.47
1188,11218.77
1189,11229.87
1190,11236.69
1191,11233.72
1192,11225.94
1193,11222.69
1194,11229.69
1195,11239.48
1196,11241.64
1197,11229.66
1198,11204.97
1199,11170.08
1200,11130.23
1201,11093.85
1202,11068.96
1203,11056.22
1204,11051.33
1205,11050.21
1206,11050.86
1207,11052.01
1208,11052.04
1209,11048.15
1210,11037.37
1211,11022.93
1212,11018.96
1213,11039.8
1214,11080.59
1215,11117.59
1216,11128.99
1217,11118.48
1218,11103.71
1219,11098.08
1220,11094.78
1221,11081.14
1222,11052.91
1223,11025.85
1224,11018.32
1225,11034.84
1226,11062.18
1227,11086.33
1228,11098.95
1229,11095.68
1230,11074.5
1231,11047.01
1232,11029.83
1233,11032.38
1234,11042.62
1235,11044.68
1236,11030.89
1237,11006.03
1238,10976.04
1239,10948.39
1240,10931.85
1241,10933.29
1242,10946.48
1243,10959.61
1244,10964.21
1245,10962.92
1246,10960.63
1247,10961.17
1248,10966.61
1249,10978.27
1250,10986.95
1251,10974.52
1252,10928.08
1253,10874.09
1254,10856.03
1255,10898.05
1256,10960.5
1257,10991.13
1258,10970.31
1259,10930.49
1260,10907.24
1261,10910.49
1262,10929.45
1263,10953.83
1264,10980.54
1265,11009.34
1266,11035.31
1267,11039.73
1268,11002.01
1269,10930.93
1270,10876.45
1271,10886.98
1272,10950.75
1273,11014.24
1274,11032.72
1275,11012.2
1276,10975.31
1277,10939.99
1278,10913.26
1279,10900.48
1280,10903.91
1281,10922.37
1282,10953.24
1283,10982.73
1284,10991.05
1285,10967.63
1286,10937.52
1287,10933.95
1288,10966.07
1289,11001.92
1290,11007.39
1291,10979.34
1292,10939.59
1293,10908.8
1294,10896.61
1295,10908.55
1296,10942.55
1297,10977.37
1298,10989.42
1299,10973.76
1300,10946.61
1301,10924.37
1302,10914.55
1303,10920.01
1304,10939.92
1305,10960.5
1306,10965.26
1307,10947.1
1308,10913.2
1309,10872.38
1310,10838.79
1311,10830.31
1312,10858.5
1313,10904.88
1314,10942.17
1315,10958.83
1316,10973.7
1317,11007.6
1318,11053.87
1319,11082.34
1320,11069.24
1321,11033.51
1322,11009.81
1323,11020.32
1324,11057.99
1325,11111.26
1326,11161.77
1327,11184.29
1328,11160.29
1329,11120.47
1330,11116.64
1331,11173.23
1332,11241.11
1333,11260.72
1334,11225.65
1335,11188.59
1336,11197.32
1337,11235.81
1338,11258.12
1339,11238.25
1340,11208.41
1341,11210.14
1342,11248.94
1343,11288.12
1344,11292.98
1345,11265.06
1346,11223.46
1347,11184.19
1348,11153.77
1349,11137
1350,11137.33
1351,11156.6
1352,11194.56
1353,11235.05
1354,11254.43
1355,11239.83
1356,11208.66
1357,11182.99
1358,11168.23
1359,11151.6
1360,11122.22
1361,11089.48
1362,11071.57
1363,11083.55
1364,11132.37
1365,11222.47
1366,11329.65
1367,11401.85
1368,11397.38
1369,11345.17
1370,11300.51
1371,11299.28
1372,11335.91
1373,11399.03
1374,11469.39
1375,11521.2
1376,11534.11
1377,11515.31
1378,11480.34
1379,11444.8
1380,11424.36
1381,11432.77
1382,11460.5
1383,11482.81
1384,11481.27
1385,11461.65
1386,11435.22
1387,11411.18
1388,11395.99
1389,11393.87
1390,11391.73
1391,11368.12
1392,11316.99
1393,11272.8
1394,11274.36
1395,11312.32
1396,11331.58
1397,11289.36
1398,11220.13
1399,11184.14
1400,11205.08
1401,11240.88
1402,11246.15
1403,11218.07
1404,11181.58
1405,11158.14
1406,11155.37
1407,11177.37
1408,11211.64
1409,11226.03
1410,11195.14
1411,11147.59
1412,11134.36
1413,11177.95
1414,11240.21
1415,11277.72
1416,11284.13
1417,11280.57
1418,11283.32
1419,11287.08
1420,11281.67
1421,11270.07
1422,11271.9
1423,11302.79
1424,11342.02
1425,11353.17
1426,11320.33
1427,11271.64
1428,11239.43
1429,11235.07
1430,11254.74
1431,11291.05
1432,11324.99
1433,11335.48
1434,11320.25
1435,11298.95
1436,11288.95
1437,11285.51
1438,11275.48
1439,11253.72
1440,11229.87
1441,11215.06
1442,11219.13
1443,11251.17
1444,11308.14
1445,11352.06
1446,11340.99
1447,11282.93
1448,11231.83
1449,11231.84
1450,11274.14
1451,11334.87
1452,11393.94
1453,11436.41
1454,11450.46
1455,11443.96
1456,11433.23
1457,11427.52
1458,11421.92
1459,11411
1460,11401.77
1461,11408.98
1462,11438.47
1463,11470.32
1464,11481.38
1465,11473.34
1466,11469.39
1467,11487.18
1468,11518.82
1469,11550.03
1470,11569.98
1471,11571.92
1472,11553.42
1473,11535.54
1474,11547.08
1475,11585.03
1476,11596.95
1477,11536.69
1478,11441.94
1479,11389.64
1480,11417.44
1481,11482.94
1482,11536.71
1483,11559.46
1484,11550.1
1485,11514.02
1486,11472.71
1487,11449.35
1488,11453.32
1489,11483.58
1490,11531.41
1491,11564.08
1492,11546.05
1493,11484.78
1494,11427.3
1495,11410.16
1496,11421.53
1497,11438.04
1498,11452.94
1499,11477.65
1500,11517.57
1501,11544.95
1502,11523.19
1503,11458.23
1504,11409.67
1505,11427.2
1506,11484.58
1507,11529.53
1508,11536.22
1509,11516.55
1510,11486.29
1511,11467.04
1512,11482.42
1513,11532.61
1514,11580.91
1515,11592.98
1516,11575.09
1517,11551.04
1518,11537.58
1519,11539.4
1520,11559.4
1521,11595.83
1522,11644.74
1523,11697.83
1524,11739.07
1525,11753.78
1526,11745.21
1527,11725.23
1528,11703.02
1529,11682.77
1530,11668.48
1531,11667.16
1532,11687.2
1533,11727.13
1534,11767.35
1535,11789.45
1536,11801.06
1537,11822.25
1538,11854.59
1539,11866.08
1540,11828.13
1541,11766.4
1542,11731.67
1543,11745.2
1544,11777.18
1545,11796.52
1546,11800.49
1547,11798.71
1548,11799.02
1549,11806.26
1550,11823.91
1551,11848.29
1552,11872.84
1553,11891.05
1554,11896.51
1555,11884.88
1556,11863.95
1557,11845.76
1558,11838.57
1559,11845.65
1560,11868.86
1561,11904.7
1562,11947.62
1563,11983.43
1564,11988.18
1565,11949.09
1566,11902.58
1567,11896.49
1568,11945.29
1569,12031.67
1570,12129.98
1571,12190.97
1572,12165.04
1573,12079.13
1574,12020.83
1575,12044.35
1576,12107.86
1577,12157.15
1578,12184.35
1579,12211.13
1580,12250.11
1581,12293.47
1582,12330.64
1583,12350.72
1584,12342.9
1585,12316.87
1586,12316.3
1587,12374.68
1588,12442.9
1589,12442.66
1590,12375.64
1591,12344.28
1592,12426.17
1593,12559.98
1594,12649.39
1595,12670.98
1596,12669.63
1597,12683.69
1598,12722.73
1599,12788.61
1600,12856.43
1601,12883.12
1602,12852.36
1603,12806.6
1604,12789.15
1605,12788.05
1606,12765.52
1607,12717.29
1608,12689.58
1609,12721.64
1610,12794.73
1611,12871.95
1612,12928.68
1613,12952.83
1614,12939.71
1615,12906.95
1616,12875.99
1617,12857.28
1618,12853.71
1619,12857.81
1620,12840.83
1621,12778.86
1622,12703.06
1623,12667.93
1624,12684.17
1625,12703.96
1626,12685.37
1627,12630.01
1628,12551.76
1629,12474.2
1630,12429.13
1631,12431.48
1632,12452.88
1633,12461.12
1634,12449.92
1635,12426.4
1636,12401.38
1637,12391.06
1638,12407.66
1639,12442.19
1640,12479.14
1641,12499.21
1642,12479.71
1643,12414.74
1644,12342.28
1645,12302.65
1646,12294.61
1647,12295.84
1648,12297.76
1649,12311.89
1650,12346.56
1651,12388.84
1652,12420.82
1653,12439.68
1654,12454.85
1655,12470.44
1656,12477.61
1657,12469.15
1658,12462.8
1659,12485.78
1660,12517.59
1661,12479.86
1662,12337.5
1663,12218.18
1664,12268.17
1665,12435.71
1666,12543.42
1667,12512.24
1668,12436.28
1669,12406.87
1670,12413.4
1671,12415.11
1672,12409.75
1673,12428.7
1674,12481.29
1675,12522.43
1676,12509.47
1677,12472.47
1678,12471.08
1679,12516.27
1680,12563.76
1681,12576.67
1682,12550.35
1683,12489.21
1684,12424.8
1685,12402.81
1686,12435.83
1687,12490.16
1688,12532.49
1689,12544.66
1690,12515.63
1691,12476.66
1692,12485.79
1693,12553.42
1694,12611.56
1695,12602.73
1696,12548.82
1697,12493.92
1698,12484.04
1699,12565.95
1700,12718.38
1701,12797.03
1702,12692.62
1703,12531.64
1704,12500.22
1705,12593.5
1706,12658.04
1707,12609.66
1708,12504.04
1709,12408.85
1710,12372.14
1711,12431.28
1712,12550.84
1713,12638.1
1714,12650.14
1715,12641.75
1716,12665.78
1717,12710.99
1718,12747.13
1719,12755.76
1720,12727.61
1721,12671.16
1722,12626.25
1723,12625.82
1724,12656.12
1725,12689.81
1726,12696.14
1727,12642.69
1728,12544.86
1729,12494.77
1730,12553.82
1731,12634.74
1732,12625.82
1733,12546.77
1734,12495.11
1735,12513.05
1736,12565.87
1737,12621.9
1738,12677.24
1739,12728.2
1740,12727.43
1741,12610.39
1742,12432.53
1743,12381.43
1744,12538.58
1745,12703.5
1746,12680.99
1747,12574.98
1748,12590.26
1749,12721.86
1750,12787.92
1751,12712.41
1752,12625.58
1753,12643.59
1754,12724.33
1755,12787.11
1756,12796.8
1757,12747.02
1758,12660.14
1759,12595.75
1760,12591.83
1761,12615.97
1762,12629.67
1763,12640.22
1764,12672.17
1765,12714.93
1766,12726.62
1767,12694.28
1768,12661.47
1769,12664.43
1770,12682.17
1771,12682.71
1772,12674.57
1773,12688.73
1774,12728.26
1775,12762.86
1776,12771.7
1777,12762.11
1778,12747.48
1779,12750.64
1780,12794.05
1781,12850.76
1782,12859.57
1783,12813.17
1784,12782.28
1785,12809.38
1786,12835.23
1787,12796.37
1788,12724.15
1789,12684.46
1790,12689.54
1791,12708.56
1792,12717.97
1793,12707.78
1794,12673.78
1795,12626.67
1796,12582.79
1797,12576.44
1798,12644.98
1799,12748.99
1800,12786.76
1801,12735.17
1802,12698.51
1803,12749.27
1804,12823.82
1805,12845.12
1806,12824.29
1807,12804.96
1808,12786.15
1809,12733.04
1810,12649.55
1811,12597.03
1812,12616.86
1813,12682.06
1814,12756.53
1815,12819.58
1816,12855.93
1817,12851.99
1818,12796.52
1819,12719.75
1820,12701.81
1821,12778.98
1822,12882.63
1823,12940.03
1824,12923.27
1825,12825.01
1826,12712.43
1827,12685.82
1828,12740.18
1829,12773.74
1830,12747.73
1831,12733.18
1832,12782.29
1833,12859.13
1834,12911.77
1835,12892.52
1836,12764.89
1837,12606.41
1838,12563.58
1839,12656.72
1840,12764.07
1841,12796.86
1842,12745.64
1843,12638.74
1844,12604.97
1845,12753.79
1846,12923.69
1847,12869.11
1848,12663.81
1849,12596.04
1850,12713.97
1851,12780.06
1852,12687.96
1853,12624.63
1854,12730.91
1855,12866.23
1856,12865.92
1857,12797.68
1858,12804.12
1859,12857.56
1860,12824.87
1861,12713.67
1862,12682.5
1863,12776.5
1864,12829.54
1865,12735.74
1866,12629.13
1867,12644.73
1868,12699.88
1869,12663.52
1870,12586.41
1871,12605.23
1872,12688.46
1873,12665.73
1874,12528.64
1875,12490.61
1876,12642.14
1877,12777.67
1878,12738.05
1879,12661.71
1880,12713.21
1881,12828.13
1882,12871.15
1883,12828
1884,12753.1
1885,12679.2
1886,12618.87
1887,12581.75
1888,12574.22
1889,12592.39
1890,12611.07
1891,12613.41
1892,12619.5
1893,12649.56
1894,12683.33
1895,12691.65
1896,12683.88
1897,12687.01
1898,12695.25
1899,12678.54
1900,12640.75
1901,12624.74
1902,12639.81
1903,12635.04
1904,12580.96
1905,12516.9
1906,12482.47
1907,12476.77
1908,12487.98
1909,12497.2
1910,12486.77
1911,12474.36
1912,12494.47
1913,12546.88
1914,12603.93
1915,12633.1
1916,12597.94
1917,12504.76
1918,12427.21
1919,12406.19
1920,12395.3
1921,12360.75
1922,12348.41
1923,12402.11
1924,12478.42
1925,12513.84
1926,12486.38
1927,12398.75
1928,12328.14
1929,12386.09
1930,12519.01
1931,12542.47
1932,12406.46
1933,12215.21
1934,12075.91
1935,12087.08
1936,12253.22
1937,12386.98
1938,12361.12
1939,12285.06
1940,12280.4
1941,12354.12
1942,12470.15
1943,12511.32
1944,12367.03
1945,12180.16
1946,12179.89
1947,12293.13
1948,12282.19
1949,12171.54
1950,12183.68
1951,12325.27
1952,12382.58
1953,12305.01
1954,12266.39
1955,12318.16
1956,12281.24
1957,12101.44
1958,12042.36
1959,12245.02
1960,12391.19
1961,12220.6
1962,11973.18
1963,11926.28
1964,11999.1
1965,12031.61
1966,12019.49
1967,12012.11
1968,12022.91
1969,12046.03
1970,12051.36
1971,11999.53
1972,11918.13
1973,11880.04
1974,11900.65
1975,11944.22
1976,11985.09
1977,12009.59
1978,11981.42
1979,11836.52
1980,11628.61
1981,11593.74
1982,11790.54
1983,11921.81
1984,11822.95
1985,11707.4
1986,11739.13
1987,11817.84
1988,11837.09
1989,11807.04
1990,11769.63
1991,11800.05
1992,11939.31
1993,12042.13
1994,11961.42
1995,11811.62
1996,11756.57
1997,11739.7
1998,11644.7
1999,11525.82
2000,11499.15
2001,11573.31
2002,11695.89
2003,11744.18
2004,11580.68
2005,11352.89
2006,11361.4
2007,11523.72
2008,11504.99
2009,11315.62
2010,11231.65
2011,11319.85
2012,11458.3
2013,11527.26
2014,11423.27
2015,11245.29
2016,11291.66
2017,11538.2
2018,11594.9
2019,11400.99
2020,11314.97
2021,11417.67
2022,11397.61
2023,11183.93
2024,11076.29
2025,11171.73
2026,11226.84
2027,11131.27
2028,11026.77
2029,10986.93
2030,10936.65
2031,10857.07
2032,10849.71
2033,10939.79
2034,10994.43
2035,10954.84
2036,10930.35
2037,10971.55
2038,10982
2039,10908.2
2040,10813.17
2041,10753.8
2042,10747.67
2043,10795.99
2044,10876.26
2045,10951.5
2046,10961.61
2047,10884.5
2048,10780.75
2049,10702.01
2050,10661.49
2051,10641.83
2052,10574.7
2053,10460.18
2054,10442.74
2055,10550.35
2056,10558.13
2057,10381.03
2058,10245.22
2059,10285.32
2060,10410.62
2061,10508.47
2062,10470.71
2063,10311.67
2064,10244.18
2065,10324.73
2066,10338.3
2067,10197.97
2068,10041.37
2069,9989.861
2070,10112.5
2071,10318.51
2072,10322.2
2073,10125.16
2074,10083.42
2075,10240.93
2076,10277.26
2077,10144.12
2078,10085.08
2079,10112.9
2080,10021.54
2081,9851.027
2082,9844.193
2083,9959.049
2084,9943.972
2085,9811.709
2086,9748.343
2087,9733.048
2088,9632.268
2089,9516.971
2090,9544.158
2091,9615.728
2092,9543.972
2093,9414.75
2094,9393.585
2095,9400.703
2096,9305.938
2097,9202.028
2098,9201.009
2099,9178.007
2100,9028.677
2101,8972.506
2102,9161.852
2103,9296.827
2104,9167.168
2105,9036.822
2106,9095.709
2107,9196.384
2108,9220.475
2109,9188.706
2110,9134.271
2111,9085.621
2112,9049.153
2113,9003.971
2114,8952.12
2115,8920.923
2116,8909.363
2117,8891.257
2118,8859.116
2119,8815.488
2120,8716.92
2121,8516.019
2122,8358.059
2123,8424.81
2124,8540.472
2125,8461.049
2126,8284.439
2127,8175.601
2128,8160.411
2129,8213.968
2130,8258.854
2131,8243.894
2132,8198.734
2133,8133.276
2134,8005.208
2135,7862.264
2136,7874.303
2137,7982.031
2138,7894.203
2139,7708.289
2140,7807.331
2141,8029.51
2142,7932.411
2143,7677.7
2144,7641.241
2145,7715.814
2146,7680.696
2147,7582.873
2148,7517.135
2149,7504.96
2150,7531.804
2151,7534.096
2152,7484.563
2153,7427.036
2154,7380.286
2155,7324.154
2156,7246.224
2157,7146.994
2158,7071.47
2159,7078.17
2160,7094.682
2161,7020.06
2162,6949.273
2163,6989.921
2164,7039.656
2165,6992.114
2166,6862.899
2167,6681.148
2168,6466.878
2169,6340.76
2170,6534.668
2171,6850.107
2172,6740.87
2173,6352.556
2174,6217.595
2175,6319.491
2176,6416.223
2177,6388.213
2178,6216.516
2179,6083.818
2180,6086.617
2181,6055.31
2182,5974.73
2183,6085.813
2184,6274.388
2185,6106.812
2186,5760.998
2187,5740.02
2188,5862.882
2189,5754.496
2190,5558.861
2191,5489.933
2192,5531.722
2193,5609.613
2194,5619.434
2195,5543.709
2196,5473.241
2197,5463.823
2198,5519.206
2199,5479.999
2200,5194.381
2201,5001.138
2202,5178.597
2203,5289.578
2204,5088.981
2205,4993.89
2206,5134.182
2207,5188.696
2208,5027.328
2209,4713.751
2210,4446.883
2211,4445.688
2212,4701.684
2213,5070.858
2214,5222.666
2215,5025.961
2216,4753.129
2217,4580.913
2218,4532.873
2219,4561.489
2220,4581.039
2221,4534.056
2222,4416.989
2223,4381.027
2224,4450.312
2225,4312.425
2226,3962.804
2227,3817.477
2228,3935.189
2229,4085.917
2230,4079.421
2231,3838.826
2232,3659.479
2233,3733.672
2234,3812.85
2235,3768.401
2236,3705.601
2237,3708.134
2238,3797.106
2239,3749.068
2240,3408.754
2241,3287.452
2242,3619.338
2243,3746.246
2244,3477.302
2245,3274.513
2246,3231.29
2247,3196.47
2248,3196.017
2249,3270.235
2250,3294.656
2251,3206.583
2252,3098.747
2253,3021.739
2254,2972.133
2255,2941.742
2256,2907.075
2257,2785.381
2258,2596.19
2259,2612
2260,2816.251
2261,2838.2
2262,2687.367
2263,2582.176
2264,2450.648
2265,2238.047
2266,2200.863
2267,2323.478
2268,2175.493
2269,1923.661
2270,2085.535
2271,2403.426
2272,2476.776
2273,2397.913
2274,2294.876
2275,2206.159
2276,2135.056
2277,2064.563
2278,1989.903
2279,1913.241
2280,1842.5
2281,1807.508
2282,1859.988
2283,1905.332
2284,1795.126
2285,1767.12
2286,1995.566
2287,2050.399
2288,1798.474
2289,1642.852
2290,1629.088
2291,1575.12
2292,1572.156
2293,1659.933
2294,1538.708
2295,1306.611
2296,1503.959
2297,1809.833
2298,1615.175
2299,1260.759
2300,1088.076
