400,89402.04
401,89234.72
402,89323.41
403,89591.45
404,89951.5
405,90311.73
406,90557.84
407,90569.41
408,90236.86
409,89603.54
410,88830.63
411,88081.05
412,87466.38
413,86999.4
414,86681.56
415,86516.43
416,86518.72
417,86706.92
418,87094.17
419,87602.84
420,88078.36
421,88364.77
422,88357.26
423,88057.55
424,87480.81
425,86679.63
426,85920.36
427,85543.76
428,85862.58
429,86698.63
430,87442.12
431,87473.63
432,86550.34
433,85230.56
434,84172.94
435,83910.65
436,84282.13
437,84882.91
438,85324.85
439,85480.3
440,85445.05
441,85321.42
442,85173.45
443,84987.71
444,84741.42
445,84428.55
446,84130.12
447,83955.16
448,84002.49
449,84219.23
450,84433.23
451,84471.16
452,84277.23
453,84008.66
454,83844.57
455,83903.16
456,84030.2
457,83995.22
458,83595.31
459,82959.95
460,82443.73
461,82398.48
462,82869.05
463,83430.89
464,83621.8
465,83152.85
466,82362.39
467,81730.09
468,81675.62
469,82071.73
470,82491.57
471,82517.03
472,82060.6
473,81436.65
474,80982.17
475,80911.2
476,81100.74
477,81370.63
478,81555.95
479,81589.1
480,81442.97
481,81094.82
482,80603.38
483,80101.8
484,79724.61
485,79513.09
486,79324.02
487,78993.06
488,78425.59
489,77845.88
490,77569.09
491,77870.46
492,78574.84
493,79216.84
494,79336.41
495,78819.2
496,78021.27
497,77330.59
498,77007.38
499,76935.33
500,76929.01
501,76828.84
502,76649
503,76477.1
504,76399.48
505,76481.8
506,76771.32
507,77313.13
508,78025.98
509,78595.69
510,78684.43
511,78080.26
512,77074.76
513,76085.21
514,75490.28
515,75323.92
516,75431.59
517,75659.55
518,75908.95
519,76141.54
520,76322.54
521,76431.45
522,76479.93
523,76483.94
524,76447.38
525,76315.15
526,76014.47
527,75486.68
528,74830.05
529,74241.77
530,73914.34
531,73856.54
532,73849.16
533,73660.31
534,73215.75
535,72831.66
536,72882.31
537,73605.55
538,74528.96
539,74949.74
540,74246.75
541,72736.93
542,71352.25
543,71009.67
544,71856.28
545,73072.18
546,73781.08
547,73500.27
548,72706.26
549,72017.48
550,71911.84
551,72171.91
552,72363.23
553,72105.23
554,71587.64
555,71350.78
556,71916.66
557,73178.76
558,74307.05
559,74438.45
560,73240.19
561,71526.82
562,70259.25
563,70133.92
564,70726.09
565,71312.33
566,71252.33
567,70611.12
568,69820.55
569,69299.68
570,69173.64
571,69286.91
572,69474.48
573,69650.03
574,69863.51
575,70178.23
576,70606.6
577,70994.98
578,71156.48
579,70948.1
580,70503.35
581,70063.98
582,69853.6
583,69862.22
584,69912.48
585,69828.31
586,69585.97
587,69354.13
588,69312.41
589,69497.55
590,69623.91
591,69362.84
592,68518.29
593,67448.2
594,66654.63
595,66568.43
596,67063.24
597,67744.24
598,68231.06
599,68389.66
600,68293.29
601,68021.38
602,67654.18
603,67273.38
604,66960.27
605,66758.01
606,66614.33
607,66462.4
608,66268.86
609,66151.99
610,66272.72
611,66754.07
612,67403.28
613,67869.52
614,67822.24
615,67278.29
616,66549.24
617,65951.15
618,65644.22
619,65569.33
620,65651.02
621,65814.99
622,65989.01
623,66101.47
624,66080.82
625,65854.54
626,65350.1
627,64535.91
628,63680.59
629,63186.1
630,63414.77
631,64187.55
632,64926.77
633,65063.25
634,64514.49
635,63775.83
636,63371.56
637,63551.37
638,64038.07
639,64495.97
640,64682.03
641,64646.3
642,64497.02
643,64325.88
644,64137.29
645,63906.27
646,63616.85
647,63337.69
648,63183.81
649,63261.66
650,63523.86
651,63789.8
652,63878.36
653,63736.6
654,63484.38
655,63252.94
656,63123.42
657,63071.52
658,63059.55
659,63044.15
660,62961.87
661,62745.3
662,62355.23
663,61908
664,61573.26
665,61497.53
666,61618.58
667,61761.2
668,61760.1
669,61621.24
670,61492.09
671,61519.1
672,61686.66
673,61777.86
674,61565.95
675,61005.48
676,60390.52
677,60050.91
678,60172.93
679,60531.66
680,60829.84
681,60827.91
682,60540.84
683,60054.92
684,59464.08
685,58919.54
686,58596.7
687,58649.85
688,58997.78
689,59408.69
690,59657.18
691,59676.7
692,59548.83
693,59359.76
694,59163.82
695,58972.43
696,58793.87
697,58624.46
698,58437.17
699,58202.38
700,57924.01
701,57702.75
702,57656.19
703,57855.95
704,58176.86
705,58441.29
706,58500.48
707,58387.56
708,58207.66
709,58058.89
710,57972.74
711,57942.64
712,57957.32
713,57936.4
714,57744.25
715,57252.06
716,56551.78
717,55981.19
718,55884.62
719,56322.56
720,56917.38
721,57256.79
722,57138.43
723,56810.75
724,56579.61
725,56639.57
726,56849.69
727,57006.1
728,56945.89
729,56679.47
730,56263.96
731,55766.86
732,55321.27
733,55084.7
734,55185.25
735,55496.09
736,55757.86
737,55731.64
738,55446.27
739,55118.89
740,54958.66
741,54950.67
742,54869.93
743,54491.48
744,53841.74
745,53259.13
746,53096.5
747,53460.96
748,54056.45
749,54551.51
750,54743.46
751,54708.99
752,54561.25
753,54378.16
754,54135.86
755,53792.2
756,53341.18
757,52918.39
758,52693.5
759,52788.09
760,53074.67
761,53344.86
762,53421.52
763,53342.42
764,53237.59
765,53223.68
766,53290.99
767,53359.63
768,53353.27
769,53248.73
770,53060.58
771,52806.16
772,52541.94
773,52359.45
774,52346.77
775,52467.36
776,52544.25
777,52397.05
778,52004.09
779,51567.68
780,51304.69
781,51309.06
782,51458.16
783,51608.03
784,51661.94
785,51626.81
786,51523.39
787,51378.2
788,51233.82
789,51135.48
790,51103.08
791,51068.95
792,50946.64
793,50682.94
794,50368.66
795,50133.54
796,50078.77
797,50152.45
798,50250.93
799,50283.48
800,50244.42
801,50163.5
802,50067.09
803,49952.96
804,49804.37
805,49606.77
806,49369.49
807,49116.37
808,48871.9
809,48668.53
810,48544.35
811,48533.03
812,48589.61
813,48601.79
814,48461.04
815,48186.71
816,47926.95
817,47831.11
818,47928.9
819,48109.01
820,48253.68
821,48295.46
822,48235.88
823,48081.87
824,47866.92
825,47666.96
826,47560.84
827,47570.71
828,47614.03
829,47597.58
830,47470.57
831,47272.59
832,47054.69
833,46857.25
834,46694.81
835,46577.94
836,46507
837,46453.49
838,46383.94
839,46278.6
840,46162.09
841,46067.94
842,46017.57
843,45987.76
844,45944.93
845,45861.18
846,45731.94
847,45558.87
848,45352.49
849,45166.23
850,45066.15
851,45099.09
852,45209.11
853,45305.92
854,45311.72
855,45222.71
856,45062.8
857,44858.27
858,44651.39
859,44491
860,44417.72
861,44411.11
862,44422.91
863,44409.03
864,44360.16
865,44284.38
866,44190.14
867,44088.89
868,43993.67
869,43915.38
870,43843.54
871,43755.14
872,43631.5
873,43502.98
874,43430.82
875,43467.81
876,43559.52
877,43579.47
878,43412.27
879,43103.71
880,42814.75
881,42697.87
882,42753.41
883,42866.66
884,42925.98
885,42906.15
886,42850.74
887,42802.1
888,42751.27
889,42646.52
890,42439.89
891,42171.66
892,41958.97
893,41914.46
894,42023.87
895,42158.33
896,42190.44
897,42097.36
898,41953.68
899,41835.09
900,41766.76
901,41725.38
902,41685.98
903,41628.42
904,41537.36
905,41399.43
906,41241.89
907,41132.65
908,41137.72
909,41243.04
910,41353.27
911,41372.38
912,41266.53
913,41065.7
914,40803.6
915,40538.88
916,40355.8
917,40335.14
918,40451.18
919,40568.55
920,40552.32
921,40389.75
922,40193.54
923,40077.77
924,40062.69
925,40072.94
926,40031.69
927,39921.05
928,39782.48
929,39658.56
930,39562.39
931,39477.91
932,39388.64
933,39293.97
934,39208.68
935,39147.06
936,39101.26
937,39042.51
938,38943.3
939,38814.64
940,38702.86
941,38652.88
942,38661.65
943,38683.75
944,38674.68
945,38628.22
946,38570.79
947,38527.99
948,38497.48
949,38454.13
950,38374.36
951,38266.98
952,38165.89
953,38103.28
954,38079.54
955,38071.67
956,38056.88
957,38021.03
958,37956.04
959,37855.97
960,37738.91
961,37638.59
962,37585.19
963,37568.48
964,37553.5
965,37509.12
966,37443.99
967,37389.47
968,37372.31
969,37376.04
970,37361.45
971,37296.23
972,37205.32
973,37141.45
974,37146.42
975,37181.88
976,37173.76
977,37061.43
978,36873.12
979,36673.08
980,36518.36
981,36423.59
982,36387.81
983,36406.25
984,36454.11
985,36500.01
986,36516.82
987,36497.17
988,36439.59
989,36347.3
990,36243.28
991,36155.64
992,36103.38
993,36071.5
994,36037.13
995,35983.76
996,35915.66
997,35841.36
998,35766.64
999,35689.39
1000,35606.11
1001,35515.57
1002,35422.43
1003,35332.23
1004,35250.48
1005,35182.58
1006,35133.96
1007,35106.74
1008,35088.18
1009,35061.23
1010,35015.7
1011,34968.66
1012,34943.97
1013,34954.5
1014,34975.23
1015,34973.01
1016,34926.97
1017,34852.59
1018,34772.05
1019,34701.34
1020,34640.75
1021,34588.15
1022,34540.24
1023,34491.18
1024,34434.89
1025,34371.28
1026,34311.31
1027,34266.95
1028,34238.88
1029,34210.18
1030,34162.81
1031,34093.55
1032,34018.75
1033,33955.52
1034,33904.71
1035,33849.09
1036,33771.75
1037,33680.17
1038,33604.49
1039,33573.43
1040,33582.39
1041,33601.08
1042,33601.07
1043,33582.34
1044,33562.88
1045,33558.55
1046,33564.36
1047,33564.51
1048,33544.21
1049,33496.17
1050,33416.14
1051,33305.54
1052,33195.43
1053,33126.65
1054,33126.42
1055,33166.07
1056,33202.65
1057,33205.97
1058,33186.55
1059,33162.94
1060,33142.68
1061,33106.04
1062,33029.41
1063,32913.94
1064,32808.32
1065,32765.61
1066,32790.09
1067,32813.17
1068,32762.74
1069,32639.71
1070,32529.79
1071,32518.69
1072,32602.99
1073,32699.03
1074,32726.2
1075,32678.09
1076,32599.67
1077,32533.68
1078,32494.76
1079,32482.76
1080,32497.17
1081,32535.84
1082,32596.01
1083,32669.54
1084,32723.76
1085,32719
1086,32636.69
1087,32527.61
1088,32456.62
1089,32463
1090,32525.35
1091,32613.33
1092,32688.14
1093,32696.15
1094,32584.18
1095,32365.72
1096,32138.87
1097,32002.82
1098,31973.08
1099,31987.47
1100,31984.65
1101,31948.66
1102,31894.12
1103,31835.69
1104,31784.07
1105,31748.08
1106,31732.85
1107,31723.89
1108,31700.16
1109,31648.84
1110,31586.94
1111,31538.23
1112,31515.32
1113,31503.22
1114,31482.96
1115,31450.74
1116,31428.77
1117,31440.86
1118,31482.58
1119,31515.88
1120,31503.01
1121,31443.04
1122,31365.54
1123,31298.21
1124,31241.98
1125,31182.54
1126,31109.57
1127,31038.44
1128,30994.24
1129,30990.96
1130,30998.53
1131,30976.04
1132,30902.88
1133,30810.06
1134,30736.43
1135,30698.38
1136,30674.61
1137,30640.92
1138,30591.88
1139,30543.07
1140,30510.33
1141,30497.14
1142,30497.8
1143,30506.83
1144,30522.43
1145,30544.59
1146,30568.2
1147,30563.01
1148,30491.13
1149,30342.18
1150,30188.95
1151,30119.28
1152,30163.55
1153,30243.68
1154,30271.59
1155,30226.83
1156,30170.51
1157,30164.64
1158,30211.06
1159,30265.15
1160,30286.26
1161,30276.19
1162,30257.33
1163,30248.53
1164,30251.41
1165,30262.53
1166,30281.08
1167,30313.56
1168,30367.54
1169,30439.55
1170,30507.46
1171,30547.97
1172,30552.14
1173,30525.93
1174,30475.91
1175,30408.05
1176,30327.86
1177,30241.09
1178,30155.06
1179,30077.64
1180,30015.14
1181,29968.44
1182,29937.19
1183,29915.61
1184,29886.98
1185,29834.05
1186,29762.39
1187,29704.82
1188,29692.33
1189,29710.21
1190,29711.2
1191,29655.91
1192,29562.42
1193,29472.58
1194,29417.16
1195,29386.04
1196,29359.86
1197,29326.14
1198,29286.53
1199,29244.38
1200,29203.5
1201,29168.26
1202,29142.61
1203,29125.15
1204,29110.8
1205,29095.43
1206,29080.9
1207,29071.31
1208,29068.74
1209,29068.64
1210,29065.22
1211,29060.38
1212,29069.45
1213,29108.2
1214,29172.11
1215,29236.74
1216,29279.21
1217,29299.58
1218,29310.34
1219,29320.66
1220,29323.46
1221,29307.02
1222,29268.78
1223,29228.19
1224,29207.36
1225,29208.29
1226,29207.12
1227,29179.91
1228,29124.04
1229,29051.95
1230,28976.19
1231,28908.33
1232,28859.57
1233,28835.98
1234,28828.43
1235,28825.04
1236,28815.4
1237,28791.37
1238,28746.07
1239,28690.14
1240,28648.48
1241,28641.67
1242,28657.35
1243,28669.27
1244,28660.93
1245,28648.36
1246,28654
1247,28682.78
1248,28710.78
1249,28712.72
1250,28686.73
1251,28650.95
1252,28622.45
1253,28606.39
1254,28602.71
1255,28610.37
1256,28625.15
1257,28642.15
1258,28656.54
1259,28663.6
1260,28658.88
1261,28641.72
1262,28614.57
1263,28581.35
1264,28555.01
1265,28552.05
1266,28578.6
1267,28610.27
1268,28617.67
1269,28596.88
1270,28579.67
1271,28597.59
1272,28644.81
1273,28689.55
1274,28705.59
1275,28698.77
1276,28685.41
1277,28677.8
1278,28678.77
1279,28689.75
1280,28710.53
1281,28739.13
1282,28771.77
1283,28789.54
1284,28765.38
1285,28688.63
1286,28611.55
1287,28600.91
1288,28676.29
1289,28776.89
1290,28836.93
1291,28838.58
1292,28802.61
1293,28750.86
1294,28704.83
1295,28685.85
1296,28702.76
1297,28733.02
1298,28749.67
1299,28739.24
1300,28703.55
1301,28646.7
1302,28585.36
1303,28542.77
1304,28533.48
1305,28540.94
1306,28541.97
1307,28527.15
1308,28508.01
1309,28496.7
1310,28490.39
1311,28475.95
1312,28445.53
1313,28417.23
1314,28416.66
1315,28452.26
1316,28499.14
1317,28530.05
1318,28543.66
1319,28560.86
1320,28598.44
1321,28644.37
1322,28676.08
1323,28685.2
1324,28696.62
1325,28738.76
1326,28810.43
1327,28880.68
1328,28921.45
1329,28934.53
1330,28934.48
1331,28938.17
1332,28968.39
1333,29047.65
1334,29160.68
1335,29250.21
1336,29265.13
1337,29220.67
1338,29163.23
1339,29130.38
1340,29133.41
1341,29178.36
1342,29252.66
1343,29322.06
1344,29355.59
1345,29359.8
1346,29359.41
1347,29368.41
1348,29369.05
1349,29338.65
1350,29282.08
1351,29236.2
1352,29233.96
1353,29262.47
1354,29287.24
1355,29287.6
1356,29281.89
1357,29294.29
1358,29322.71
1359,29336.36
1360,29310.06
1361,29269.44
1362,29262.13
1363,29310.76
1364,29375.13
1365,29407.41
1366,29406.53
1367,29416.91
1368,29474.63
1369,29552.92
1370,29601.61
1371,29597.48
1372,29574.57
1373,29572.37
1374,29597.92
1375,29631.67
1376,29656.54
1377,29671.38
1378,29679.95
1379,29691.21
1380,29722.96
1381,29790.58
1382,29870.01
1383,29911.39
1384,29883.98
1385,29828.83
1386,29802.57
1387,29823.96
1388,29862.41
1389,29886.98
1390,29891.9
1391,29883.68
1392,29866.49
1393,29838.26
1394,29796.38
1395,29748.17
1396,29710.45
1397,29697
1398,29703
1399,29717.29
1400,29725.23
1401,29706.02
1402,29641.35
1403,29550.74
1404,29478.45
1405,29458.29
1406,29486.15
1407,29549.23
1408,29619.07
1409,29648.75
1410,29601.85
1411,29521.53
1412,29483.98
1413,29529.33
1414,29620.96
1415,29714.33
1416,29793.85
1417,29865.31
1418,29933.64
1419,29998.48
1420,30058.24
1421,30116.17
1422,30181.52
1423,30259.26
1424,30320.96
1425,30323.82
1426,30257.42
1427,30180.77
1428,30157.88
1429,30196.69
1430,30264.46
1431,30326.54
1432,30345.22
1433,30283.8
1434,30163.04
1435,30070.52
1436,30080.34
1437,30158
1438,30227.63
1439,30247.47
1440,30238.71
1441,30227.65
1442,30222.54
1443,30220.72
1444,30217.18
1445,30200.57
1446,30159.83
1447,30111.43
1448,30097.29
1449,30146.2
1450,30222.48
1451,30272.82
1452,30279.99
1453,30275.63
1454,30289.24
1455,30309.79
1456,30308.9
1457,30282.67
1458,30275.44
1459,30331.32
1460,30427.51
1461,30499.46
1462,30508.46
1463,30491.21
1464,30495.65
1465,30530.82
1466,30572.02
1467,30600.35
1468,30625.28
1469,30662.84
1470,30710.95
1471,30746.23
1472,30750.61
1473,30743.25
1474,30756.16
1475,30799.52
1476,30849.6
1477,30883.7
1478,30910.64
1479,30953.94
1480,31018.53
1481,31071.55
1482,31079.73
1483,31055.29
1484,31037.99
1485,31054.23
1486,31094.56
1487,31143.27
1488,31177.38
1489,31168.33
1490,31106.87
1491,31046.91
1492,31051.65
1493,31109.73
1494,31141.34
1495,31090.15
1496,31005.21
1497,30960.22
1498,30977.96
1499,31025.76
1500,31071.25
1501,31097.27
1502,31091.93
1503,31069.83
1504,31078.89
1505,31155.08
1506,31254.45
1507,31306.01
1508,31287.17
1509,31244.38
1510,31224.43
1511,31241.63
1512,31297.33
1513,31380.49
1514,31460.67
1515,31510.07
1516,31532.4
1517,31545
1518,31560.63
1519,31584.18
1520,31619.14
1521,31664.11
1522,31715.5
1523,31774.29
1524,31849.79
1525,31946.57
1526,32024.44
1527,32022.07
1528,31932.38
1529,31848.25
1530,31860.15
1531,31947.54
1532,32035.9
1533,32082.87
1534,32106.32
1535,32128.77
1536,32157.47
1537,32192.29
1538,32226.9
1539,32244.05
1540,32229.2
1541,32198.28
1542,32181.24
1543,32186.66
1544,32186.1
1545,32153.2
1546,32103.47
1547,32070.61
1548,32069.82
1549,32086.48
1550,32105.93
1551,32131.29
1552,32172.51
1553,32224.29
1554,32259.11
1555,32256.65
1556,32249.24
1557,32286.88
1558,32371.01
1559,32440.01
1560,32447.14
1561,32441.53
1562,32499.65
1563,32623.83
1564,32732.97
1565,32764.18
1566,32750.56
1567,32749.1
1568,32789.66
1569,32876.18
1570,33004.3
1571,33145.04
1572,33264.67
1573,33339.64
1574,33354.42
1575,33309.95
1576,33251.57
1577,33229.5
1578,33262.06
1579,33347.11
1580,33468.64
1581,33581.7
1582,33644.66
1583,33676.48
1584,33725.85
1585,33797.11
1586,33820.69
1587,33740.04
1588,33621.93
1589,33577.74
1590,33634.44
1591,33712.73
1592,33747.65
1593,33768.31
1594,33827.23
1595,33924.04
1596,34008.71
1597,34050.2
1598,34082.63
1599,34148.43
1600,34234.7
1601,34290.96
1602,34303.09
1603,34337.11
1604,34456.99
1605,34625.01
1606,34755.89
1607,34822.7
1608,34886.58
1609,35004.52
1610,35174.23
1611,35374.41
1612,35583.65
1613,35780.43
1614,35945.55
1615,36067.69
1616,36137.89
1617,36157.27
1618,36133.86
1619,36071.92
1620,35967.66
1621,35818.6
1622,35639.59
1623,35452.91
1624,35271.34
1625,35094.81
1626,34924.7
1627,34772.13
1628,34649.88
1629,34552.92
1630,34461.3
1631,34370.32
1632,34314.91
1633,34330.1
1634,34397.02
1635,34469.25
1636,34510.68
1637,34501.04
1638,34433.98
1639,34362.78
1640,34354.75
1641,34405.91
1642,34448.84
1643,34439.5
1644,34400.66
1645,34363.7
1646,34341.39
1647,34336.91
1648,34350.62
1649,34378.89
1650,34415.41
1651,34443.67
1652,34446.12
1653,34435.28
1654,34448.05
1655,34502.44
1656,34571.62
1657,34622.95
1658,34627.4
1659,34558.75
1660,34434.81
1661,34326.71
1662,34296.02
1663,34359.11
1664,34516.74
1665,34702.58
1666,34808.05
1667,34794.46
1668,34744.72
1669,34737.84
1670,34770.66
1671,34814.18
1672,34841.07
1673,34825.62
1674,34775.27
1675,34775.08
1676,34898.06
1677,35052.6
1678,35081.43
1679,34976.98
1680,34901.65
1681,34962.29
1682,35066.74
1683,35098.2
1684,35066.09
1685,35047.35
1686,35073.23
1687,35110.23
1688,35127.93
1689,35126.04
1690,35112.95
1691,35114.86
1692,35169.02
1693,35275.73
1694,35374.74
1695,35412.48
1696,35390.63
1697,35328.33
1698,35275.41
1699,35303.42
1700,35418.63
1701,35508.12
1702,35479.81
1703,35405.77
1704,35401.42
1705,35477.28
1706,35562.18
1707,35609.24
1708,35622.14
1709,35612.83
1710,35606
1711,35628.04
1712,35667.11
1713,35681.39
1714,35662.89
1715,35669.46
1716,35746.06
1717,35837.08
1718,35862.57
1719,35842.3
1720,35871.47
1721,35979.33
1722,36073.67
1723,36072.6
1724,35999.76
1725,35909.26
1726,35861.32
1727,35919.5
1728,36076.77
1729,36212.96
1730,36231.68
1731,36171.43
1732,36101.59
1733,36066.13
1734,36092.74
1735,36162
1736,36190.59
1737,36136.38
1738,36104.63
1739,36209.2
1740,36389.02
1741,36500.31
1742,36493.53
1743,36423.77
1744,36356.68
1745,36370.34
1746,36518.14
1747,36690.14
1748,36724.07
1749,36624.06
1750,36534.7
1751,36537.97
1752,36591.46
1753,36641
1754,36640.14
1755,36555.08
1756,36468.37
1757,36530.6
1758,36741.95
1759,36903.34
1760,36879.88
1761,36763.02
1762,36671.57
1763,36631.08
1764,36628.39
1765,36655.3
1766,36708.08
1767,36777.32
1768,36842.77
1769,36885.88
1770,36900.59
1771,36885.83
1772,36857.63
1773,36841.52
1774,36850.11
1775,36880.57
1776,36927.95
1777,36984.35
1778,37041.1
1779,37088.09
1780,37114.57
1781,37108.91
1782,37059.68
1783,36996.95
1784,37010.03
1785,37140.56
1786,37275.48
1787,37297.89
1788,37253.01
1789,37245.7
1790,37299
1791,37370.23
1792,37430.07
1793,37473.25
1794,37498.18
1795,37508.16
1796,37507.03
1797,37495.63
1798,37474.23
1799,37454.74
1800,37458.51
1801,37493.73
1802,37547.25
1803,37604.93
1804,37655.61
1805,37691.3
1806,37721.13
1807,37759.84
1808,37802.68
1809,37830.11
1810,37837.38
1811,37841.7
1812,37854.47
1813,37865.89
1814,37866.22
1815,37866.34
1816,37882.69
1817,37911.08
1818,37934.21
1819,37951.76
1820,37984.24
1821,38036.43
1822,38075.21
1823,38073.1
1824,38049.32
1825,38033.15
1826,38030.73
1827,38036.61
1828,38048.65
1829,38068.05
1830,38104.3
1831,38180.34
1832,38290.38
1833,38338.62
1834,38240.4
1835,38074.16
1836,37968.14
1837,37950.52
1838,37985.25
1839,38038.52
1840,38080.47
1841,38107.48
1842,38166.7
1843,38279.36
1844,38355.02
1845,38304.25
1846,38205.2
1847,38192.75
1848,38267.32
1849,38337.6
1850,38369.5
1851,38398.27
1852,38443.63
1853,38486.74
1854,38507.73
1855,38499.21
1856,38464.24
1857,38453.97
1858,38527.39
1859,38617.71
1860,38582.2
1861,38435.38
1862,38359.95
1863,38442.47
1864,38586.71
1865,38695.59
1866,38724.3
1867,38649.04
1868,38504.57
1869,38347.02
1870,38256.66
1871,38319.02
1872,38488.1
1873,38609.02
1874,38622.05
1875,38599.34
1876,38595.36
1877,38606.87
1878,38626.54
1879,38658.59
1880,38706.79
1881,38757.36
1882,38791.66
1883,38805.84
1884,38805.52
1885,38813.86
1886,38868.08
1887,38940.73
1888,38915.85
1889,38768.9
1890,38681.94
1891,38778.7
1892,38901.02
1893,38873.53
1894,38742.99
1895,38624.86
1896,38590.82
1897,38683.37
1898,38841.02
1899,38925.9
1900,38909.63
1901,38890.49
1902,38918.96
1903,38953.16
1904,38954.21
1905,38913.47
1906,38835.29
1907,38756.1
1908,38716.3
1909,38732.96
1910,38809.51
1911,38901.07
1912,38941.17
1913,38932.67
1914,38931.49
1915,38963.14
1916,39017.35
1917,39056.15
1918,39001.31
1919,38843.65
1920,38737.14
1921,38786.13
1922,38860.04
1923,38826.84
1924,38775.33
1925,38831.95
1926,38927.64
1927,38926.56
1928,38865.48
1929,38876.79
1930,38972.83
1931,39067.67
1932,39106.89
1933,39075.11
1934,38994.61
1935,38941.23
1936,38951.1
1937,38969.31
1938,38960.29
1939,38974.48
1940,39039.34
1941,39034.03
1942,38852.8
1943,38666.21
1944,38697.18
1945,38866.02
1946,38965.26
1947,38886.27
1948,38596.38
1949,38317.36
1950,38448.98
1951,38900.18
1952,39087.27
1953,38837.33
1954,38541.45
1955,38440.82
1956,38460.41
1957,38518.57
1958,38585
1959,38624.77
1960,38571.9
1961,38401.43
1962,38256.5
1963,38278.93
1964,38424.2
1965,38590.91
1966,38664.55
1967,38551.21
1968,38359.02
1969,38273.84
1970,38298.86
1971,38333.25
1972,38323.75
1973,38255.09
1974,38162.64
1975,38123.26
1976,38150.18
1977,38187.79
1978,38198.02
1979,38169.81
1980,38101.43
1981,38003.02
1982,37910.95
1983,37907.47
1984,38005.82
1985,38056.01
1986,37981.54
1987,37957.59
1988,38096.72
1989,38184.9
1990,38042.35
1991,37858.3
1992,37838.83
1993,37880.52
1994,37834.49
1995,37762.88
1996,37771.52
1997,37812.4
1998,37793.08
1999,37720.78
2000,37646.14
2001,37618.06
2002,37673.03
2003,37734.57
2004,37675.4
2005,37519.09
2006,37380.1
2007,37296.95
2008,37255.05
2009,37268.99
2010,37370.41
2011,37465.94
2012,37363.41
2013,37095.92
2014,36908.93
2015,36890.57
2016,36956.29
2017,37032.77
2018,37068.83
2019,37027.86
2020,36891.09
2021,36700.98
2022,36577.52
2023,36578.86
2024,36668.29
2025,36764.66
2026,36733.83
2027,36588.66
2028,36577.29
2029,36746.46
2030,36778.33
2031,36560.18
2032,36391.45
2033,36405.09
2034,36362.35
2035,36180.84
2036,36139.31
2037,36305.49
2038,36270.2
2039,35884.33
2040,35611.34
2041,35699.39
2042,35826.89
2043,35775.72
2044,35671.93
2045,35628.52
2046,35648.01
2047,35679
2048,35588.97
2049,35363.85
2050,35246.46
2051,35325.57
2052,35323.61
2053,35100.16
2054,34866.87
2055,34773.31
2056,34772.16
2057,34804.98
2058,34833.85
2059,34831.61
2060,34786.57
2061,34687.52
2062,34522.13
2063,34338.38
2064,34281.11
2065,34346.08
2066,34285.09
2067,34045.59
2068,33892.36
2069,33902.38
2070,33859.03
2071,33702.54
2072,33603
2073,33615.8
2074,33641.07
2075,33662.28
2076,33760.85
2077,33857.56
2078,33714.62
2079,33378.8
2080,33160.61
2081,33114.59
2082,33070.84
2083,32965.8
2084,32829.75
2085,32748.33
2086,32822.35
2087,32897.38
2088,32700.02
2089,32380.95
2090,32280.66
2091,32314.86
2092,32222.49
2093,32002.15
2094,31770.6
2095,31670.8
2096,31787.82
2097,31852.56
2098,31590.26
2099,31214.65
2100,31010.23
2101,31017.06
2102,31155.5
2103,31149.25
2104,30861.63
2105,30629.01
2106,30662.15
2107,30720.49
2108,30638.97
2109,30505.93
2110,30381.17
2111,30237.53
2112,30065.8
2113,29890.04
2114,29739.09
2115,29642.42
2116,29589.61
2117,29536.11
2118,29460.79
2119,29339.53
2120,28926.49
2121,27966.88
2122,27209.51
2123,27616.08
2124,28427.88
2125,28534.95
2126,28358.9
2127,28513.97
2128,28586.98
2129,28223.31
2130,27943.25
2131,28031.03
2132,27883.87
2133,27311.9
2134,27054.52
2135,27324.11
2136,27492.83
2137,27299.28
2138,26941.23
2139,26635.69
2140,26567.97
2141,26588.78
2142,26385.32
2143,26055.51
2144,25854.72
2145,25780.39
2146,25737.01
2147,25634.7
2148,25453.32
2149,25383.88
2150,25493.26
2151,25476.93
2152,25160.5
2153,24674.79
2154,24241.73
2155,24139.19
2156,24236.8
2157,24072.47
2158,23738.13
2159,23643.2
2160,23682.51
2161,23558.72
2162,23313.63
2163,23079.57
2164,22886.56
2165,22737.27
2166,22626.06
2167,22522.78
2168,22356.7
2169,22138.3
2170,21984.83
2171,21910.86
2172,21833.47
2173,21722.89
2174,21579.06
2175,21347.28
2176,20990.71
2177,20679.76
2178,20554.85
2179,20459.81
2180,20292.38
2181,20188.83
2182,20172.97
2183,20067.95
2184,19825.56
2185,19538.35
2186,19281.74
2187,19110.42
2188,19039.62
2189,19046.88
2190,19017.09
2191,18862.4
2192,18651.02
2193,18446.95
2194,18253.25
2195,18061.37
2196,17856.66
2197,17625.38
2198,17368.46
2199,17208.32
2200,17267.9
2201,17335.35
2202,17190.62
2203,16944.15
2204,16708.23
2205,16467.7
2206,16260.75
2207,16199.93
2208,16202.63
2209,16050.82
2210,15752.27
2211,15427.39
2212,15176.06
2213,15062
2214,15061.42
2215,15035.06
2216,14689.06
2217,14237.36
2218,14370.73
2219,14699.85
2220,14320.01
2221,13774.47
2222,13833.54
2223,13952.22
2224,13684.31
2225,13429.76
2226,13351.03
2227,13189.49
2228,12934.9
2229,12758.17
2230,12610.65
2231,12394.1
2232,12217.6
2233,12150.19
2234,12054.58
2235,11868.56
2236,11663.31
2237,11486.82
2238,11357.35
2239,11256.79
2240,11160.1
2241,11075.67
2242,10991.05
2243,10836.72
2244,10628.49
2245,10482.39
2246,10405.14
2247,10329.82
2248,10214.53
2249,10017.88
2250,9672.409
2251,9284.957
2252,9237.781
2253,9395.732
2254,9199.395
2255,8840.137
2256,8758.512
2257,8753.391
2258,8616.248
2259,8505.099
2260,8479.449
2261,8425.888
2262,8276.289
2263,8039.021
2264,7942.193
2265,8081.083
2266,7997.677
2267,7547.893
2268,7142.734
2269,6943.416
2270,6884.97
2271,6861.425
2272,6788.264
2273,6689.202
2274,6652.139
2275,6809.257
2276,6940.397
2277,6644.575
2278,6205.266
2279,6039.906
2280,6111.448
2281,6196.169
2282,5953.639
2283,5556.709
2284,5477.077
2285,5501.962
2286,5326.847
2287,5150.369
2288,5114.898
2289,5157.372
2290,5188.613
2291,5121.857
2292,4925.44
2293,4662.677
2294,4574.469
2295,4648.569
2296,4568.335
2297,4267.86
2298,3873.057
2299,3662.467
2300,3724.081
