400,60548.54
401,60527.76
402,60394.3
403,60225.86
404,60110.14
405,60109.86
406,60173.11
407,60215.02
408,60156.7
409,60003.26
410,59824.48
411,59691.17
412,59638.88
413,59635.27
414,59640.39
415,59620.89
416,59577.76
417,59523.39
418,59469.47
419,59416.82
420,59356.99
421,59281.38
422,59189.42
423,59097.53
424,59024.16
425,58983.63
426,58967.12
427,58957.68
428,58938.81
429,58901.45
430,58842.98
431,58761.06
432,58656.66
433,58537.84
434,58413.48
435,58291.73
436,58176.67
437,58070.9
438,57976.67
439,57890.01
440,57801.58
441,57702
442,57589.15
443,57475.68
444,57375.96
445,57301.2
446,57246.18
447,57200.38
448,57153.49
449,57097.96
450,57028.38
451,56939.52
452,56833.79
453,56727.55
454,56638.52
455,56576.46
456,56515.29
457,56418.92
458,56255.78
459,56048.63
460,55857.05
461,55740.25
462,55709.92
463,55705.25
464,55659.54
465,55527.54
466,55341.32
467,55150.46
468,54999.91
469,54893.37
470,54811.89
471,54736.58
472,54655.86
473,54567.04
474,54467.95
475,54358.71
476,54245.74
477,54136.48
478,54035.55
479,53928.47
480,53793
481,53608.86
482,53394.31
483,53202.69
484,53088.14
485,53067.21
486,53082.12
487,53066.6
488,52971.7
489,52827.24
490,52685.61
491,52594.53
492,52550.42
493,52516.54
494,52456.22
495,52353.08
496,52218.27
497,52064.86
498,51906.41
499,51758.1
500,51635.35
501,51550.62
502,51496.19
503,51455.86
504,51413.64
505,51356.36
506,51273.44
507,51154.52
508,51000.73
509,50834.33
510,50679.7
511,50555.36
512,50456.26
513,50371.43
514,50290.73
515,50211.13
516,50133.48
517,50058.5
518,49982.34
519,49896
520,49790.33
521,49662.65
522,49524.96
523,49391.18
524,49271.15
525,49154.87
526,49026.33
527,48871.71
528,48701.03
529,48539.32
530,48411.32
531,48325.96
532,48272.71
533,48239.84
534,48213.68
535,48175.56
536,48106.16
537,47990.95
538,47840.28
539,47672.59
540,47505.91
541,47354.24
542,47228.96
543,47140.99
544,47089.05
545,47056.52
546,47025.84
547,46980.38
548,46905.43
549,46786.64
550,46617.2
551,46427.69
552,46260.36
553,46153.61
554,46105.86
555,46090.97
556,46082.68
557,46058.46
558,46000.05
559,45889.61
560,45726.95
561,45550.1
562,45401.91
563,45313.12
564,45263.13
565,45217.62
566,45145.73
567,45045.54
568,44930.18
569,44812.56
570,44699.72
571,44593.08
572,44493.83
573,44403.79
574,44325.94
575,44263.32
576,44213.69
577,44157.52
578,44071.8
579,43939.75
580,43783.77
581,43641.6
582,43547.76
583,43495.44
584,43448.18
585,43369.8
586,43251.16
587,43117.3
588,42995.27
589,42898.48
590,42809.7
591,42707.52
592,42577.91
593,42437.45
594,42310.68
595,42218.83
596,42157.27
597,42108.84
598,42056.72
599,41989.55
600,41900.6
601,41783.5
602,41643.28
603,41501.34
604,41380.25
605,41290
606,41209.15
607,41111.51
608,40979.41
609,40833.68
610,40706.02
611,40624.16
612,40582.98
613,40560.93
614,40537.1
615,40502.38
616,40457.7
617,40404.19
618,40340.33
619,40260.76
620,40159.88
621,40038.71
622,39914.02
623,39804.77
624,39723.82
625,39658.95
626,39591.47
627,39505.52
628,39405.59
629,39305.25
630,39217.1
631,39140.53
632,39065.17
633,38980.68
634,38883.5
635,38778.11
636,38669.41
637,38562.16
638,38460.78
639,38369.67
640,38291.56
641,38224.09
642,38163.89
643,38106.77
644,38044.25
645,37966.43
646,37864.93
647,37745.64
648,37622.27
649,37508.36
650,37415.27
651,37352.38
652,37328.49
653,37332.09
654,37324.25
655,37264.45
656,37137.29
657,36980.52
658,36838.46
659,36742.3
660,36678.92
661,36625.79
662,36562.97
663,36484.3
664,36388.36
665,36275.5
666,36162.05
667,36073.01
668,36031.03
669,36020.01
670,35991.82
671,35898.96
672,35741.88
673,35580.57
674,35478.09
675,35455.95
676,35457.95
677,35419.64
678,35301.95
679,35138.31
680,34974.95
681,34849.37
682,34760.58
683,34696.77
684,34646.19
685,34596.96
686,34537.19
687,34456.68
688,34364.14
689,34280.35
690,34224.97
691,34192.14
692,34152.23
693,34075.43
694,33959.03
695,33836.81
696,33744.8
697,33696.23
698,33659.72
699,33598.88
700,33494
701,33373.27
702,33273.31
703,33219.35
704,33187.68
705,33141.57
706,33051.66
707,32935.29
708,32828.29
709,32762.7
710,32733.93
711,32716.56
712,32686.13
713,32635.54
714,32571.58
715,32501.22
716,32425.59
717,32339.32
718,32236.92
719,32121.54
720,32009.83
721,31919.45
722,31859.07
723,31818.13
724,31783.61
725,31745.9
726,31705.63
727,31665.36
728,31624.45
729,31568.41
730,31479.08
731,31344.63
732,31191.62
733,31061.11
734,30988.56
735,30961.46
736,30942.36
737,30896.01
738,30817.2
739,30721.78
740,30625.55
741,30535.47
742,30450.22
743,30368.1
744,30286.03
745,30199.18
746,30102.8
747,30004.55
748,29932.4
749,29916.02
750,29959.66
751,30012.34
752,30016.06
753,29935.09
754,29798.18
755,29645.68
756,29512.49
757,29412.85
758,29355.93
759,29345.06
760,29353.29
761,29343.85
762,29286.54
763,29196.55
764,29108.54
765,29052.8
766,29018.68
767,28972.7
768,28884.21
769,28760.63
770,28636.48
771,28545.29
772,28493.65
773,28464.04
774,28438.38
775,28405.08
776,28359.93
777,28299.24
778,28224.35
779,28143.69
780,28066.13
781,27994.82
782,27922.82
783,27842.23
784,27751.54
785,27663.38
786,27592.14
787,27545.19
788,27510.32
789,27471.98
790,27417.86
791,27346.52
792,27258.95
793,27158.47
794,27058.91
795,26976.87
796,26925.06
797,26895.37
798,26872.62
799,26843.43
800,26806.23
801,26764.36
802,26720.46
803,26671.22
804,26610.34
805,26532.07
806,26436.59
807,26327.68
808,26210.03
809,26100.24
810,26023.53
811,26002.94
812,26021.41
813,26027.49
814,25970.98
815,25851.07
816,25716.74
817,25617.82
818,25569.72
819,25547.22
820,25523.19
821,25482.56
822,25426.8
823,25358.64
824,25285.38
825,25221.52
826,25182.08
827,25169.44
828,25162.69
829,25138.56
830,25084.28
831,25009.32
832,24926.01
833,24842.21
834,24754.85
835,24659.23
836,24556.42
837,24463.86
838,24401.8
839,24380.92
840,24381.02
841,24375.67
842,24344.32
843,24287.9
844,24212.33
845,24125.05
846,24040.02
847,23972.92
848,23934.79
849,23914.91
850,23896.06
851,23863.53
852,23815.82
853,23755.91
854,23687.77
855,23621.65
856,23570.17
857,23542.18
858,23521.45
859,23481.37
860,23400.75
861,23298.63
862,23212.42
863,23174.35
864,23173.75
865,23178.57
866,23159.2
867,23109.16
868,23034.54
869,22942.39
870,22848.27
871,22772.8
872,22734.2
873,22724.13
874,22717.57
875,22690.81
876,22638.98
877,22569.8
878,22491.44
879,22415.08
880,22354.03
881,22320.54
882,22311.19
883,22310.74
884,22304.35
885,22287.18
886,22262.38
887,22233.15
888,22199.9
889,22160.68
890,22113.77
891,22062.22
892,22013.26
893,21973.91
894,21945.02
895,21921.84
896,21899.46
897,21873.8
898,21841.51
899,21799.46
900,21747.79
901,21689.81
902,21629.05
903,21571.79
904,21527.04
905,21503.29
906,21495.64
907,21485.82
908,21455.88
909,21407.78
910,21363.69
911,21345.45
912,21347.63
913,21336.84
914,21279.94
915,21177.86
916,21066.62
917,20982.66
918,20936.27
919,20910.86
920,20888.8
921,20856.59
922,20804.89
923,20725.32
924,20626.42
925,20533.94
926,20473.28
927,20445.77
928,20428.48
929,20398.38
930,20351.51
931,20302.79
932,20267.25
933,20245.31
934,20223.28
935,20187.48
936,20135.47
937,20075.37
938,20015.55
939,19961.16
940,19914.39
941,19877.04
942,19845.66
943,19812.13
944,19768.9
945,19720.19
946,19680.28
947,19662.67
948,19663.94
949,19666.92
950,19654.89
951,19623.73
952,19579.04
953,19526.84
954,19475.89
955,19436.88
956,19419.21
957,19415.01
958,19404.41
959,19369.13
960,19311.68
961,19248.2
962,19194.1
963,19154.91
964,19130.16
965,19118.46
966,19110.34
967,19091.76
968,19050.72
969,18993.6
970,18936.5
971,18893.74
972,18865.21
973,18843.73
974,18823.28
975,18806.68
976,18800.64
977,18808.98
978,18816.3
979,18799.4
980,18741.61
981,18664.85
982,18605.19
983,18589.93
984,18599.92
985,18600.68
986,18565.63
987,18505.44
988,18441.75
989,18391.62
990,18352.94
991,18318.55
992,18283.7
993,18252.51
994,18231.2
995,18220.54
996,18203.5
997,18159.47
998,18079.26
999,17986.65
1000,17911.27
1001,17871.36
1002,17856.41
1003,17851.45
1004,17844.98
1005,17833.01
1006,17812.6
1007,17781.89
1008,17744.04
1009,17703.62
1010,17664.61
1011,17628.69
1012,17596.97
1013,17571.61
1014,17558.51
1015,17564.36
1016,17588.2
1017,17606.35
1018,17591.03
1019,17529.99
1020,17450.46
1021,17385.7
1022,17355.95
1023,17353.26
1024,17365.96
1025,17382.15
1026,17389.37
1027,17375.28
1028,17338.4
1029,17294.13
1030,17259.01
1031,17235.91
1032,17209.77
1033,17164.93
1034,17104.11
1035,17050.34
1036,17026.7
1037,17035.85
1038,17061.48
1039,17086.74
1040,17096.12
1041,17075.19
1042,17012.43
1043,16928.81
1044,16865.93
1045,16859.67
1046,16893.77
1047,16925.03
1048,16916.9
1049,16879.17
1050,16840.94
1051,16825.04
1052,16821.35
1053,16808.86
1054,16773.04
1055,16726.13
1056,16687.22
1057,16669.81
1058,16669.72
1059,16679.28
1060,16691.11
1061,16698.68
1062,16695.63
1063,16678.56
1064,16649.85
1065,16612.5
1066,16569.08
1067,16521.47
1068,16471.72
1069,16429.54
1070,16413.51
1071,16441.28
1072,16503.06
1073,16564.4
1074,16592.7
1075,16589.41
1076,16579.55
1077,16586.42
1078,16613.97
1079,16655.98
1080,16706.3
1081,16759.75
1082,16811.53
1083,16855.91
1084,16882.79
1085,16880.8
1086,16846.71
1087,16803.86
1088,16781.02
1089,16791.87
1090,16814.38
1091,16821.5
1092,16796.45
1093,16740.29
1094,16656.15
1095,16558.57
1096,16476.56
1097,16438.29
1098,16436.74
1099,16432.22
1100,16387.54
1101,16310.48
1102,16239.08
1103,16206.23
1104,16199.78
1105,16185.86
1106,16139.33
1107,16082.15
1108,16052.06
1109,16072.11
1110,16112.11
1111,16129.77
1112,16102.71
1113,16057.66
1114,16028.56
1115,16029.81
1116,16042.47
1117,16044.78
1118,16029.65
1119,16007.29
1120,15988.33
1121,15972.94
1122,15952.65
1123,15919.64
1124,15874.97
1125,15824.73
1126,15773.96
1127,15720.92
1128,15661.26
1129,15594.15
1130,15532.62
1131,15493.07
1132,15480.35
1133,15469.79
1134,15432.37
1135,15361.34
1136,15287.31
1137,15243.59
1138,15240.08
1139,15260.5
1140,15287.47
1141,15307.5
1142,15310.06
1143,15286.94
1144,15248.6
1145,15214.53
1146,15199.17
1147,15191.92
1148,15174.49
1149,15137.22
1150,15096.54
1151,15073.6
1152,15074.4
1153,15076.28
1154,15054.12
1155,15007.13
1156,14963.82
1157,14952.06
1158,14963.64
1159,14962.51
1160,14917.54
1161,14843.64
1162,14778.05
1163,14751.21
1164,14760.75
1165,14794.68
1166,14839.15
1167,14875.14
1168,14882.96
1169,14857.88
1170,14820.29
1171,14792.39
1172,14781.38
1173,14778.95
1174,14776.21
1175,14766.43
1176,14744.2
1177,14705.8
1178,14657.86
1179,14610.92
1180,14573.3
1181,14545.62
1182,14526.79
1183,14515.06
1184,14507.36
1185,14500.44
1186,14491.73
1187,14479.4
1188,14461.98
1189,14441.8
1190,14423.92
1191,14412.34
1192,14403.72
1193,14391.63
1194,14372.01
1195,14349.46
1196,14330.55
1197,14318.6
1198,14310.36
1199,14301.83
1200,14289.62
1201,14271
1202,14243.86
1203,14212.86
1204,14187.2
1205,14174.37
1206,14170.71
1207,14168.37
1208,14162.16
1209,14155.61
1210,14153.96
1211,14159.22
1212,14167.77
1213,14175.43
1214,14178.46
1215,14173.52
1216,14158.32
1217,14140.16
1218,14131.57
1219,14141.15
1220,14158.89
1221,14169.46
1222,14165.64
1223,14159.64
1224,14166.09
1225,14184.03
1226,14192.47
1227,14171.04
1228,14125.2
1229,14078.53
1230,14052.49
1231,14053.28
1232,14081.44
1233,14130.24
1234,14171.59
1235,14173.87
1236,14132.33
1237,14083.29
1238,14063.96
1239,14069.66
1240,14061.56
1241,14007.74
1242,13931.11
1243,13877.79
1244,13877.58
1245,13906.09
1246,13928.1
1247,13927.51
1248,13919.82
1249,13922.42
1250,13934.83
1251,13941.28
1252,13928.97
1253,13909.45
1254,13904.84
1255,13926.58
1256,13950.88
1257,13947.04
1258,13908.59
1259,13867.66
1260,13857.78
1261,13879.1
1262,13904.76
1263,13912.04
1264,13910.27
1265,13921.53
1266,13955.72
1267,13987.02
1268,13983.65
1269,13940.75
1270,13891.17
1271,13868.26
1272,13875.73
1273,13896.65
1274,13915.53
1275,13926.61
1276,13927.31
1277,13918.98
1278,13912.23
1279,13918.42
1280,13932.92
1281,13933.32
1282,13900.38
1283,13853.13
1284,13831.06
1285,13860.47
1286,13916.42
1287,13961.95
1288,13976.16
1289,13965.65
1290,13939.85
1291,13910.6
1292,13891.71
1293,13893.81
1294,13908.21
1295,13919.17
1296,13918.24
1297,13915.4
1298,13922.88
1299,13936.87
1300,13935.24
1301,13898.72
1302,13842.56
1303,13799.98
1304,13796.1
1305,13826.58
1306,13880.48
1307,13939.96
1308,13976.76
1309,13964.54
1310,13913.85
1311,13860.6
1312,13835.51
1313,13842.06
1314,13875.66
1315,13924.88
1316,13965.07
1317,13971.76
1318,13950.96
1319,13934.75
1320,13949.7
1321,13984.06
1322,14012.09
1323,14018.86
1324,14014.83
1325,14013.79
1326,14021.97
1327,14038
1328,14059.34
1329,14077.56
1330,14081.73
1331,14068.53
1332,14055.07
1333,14061.29
1334,14090.15
1335,14125.74
1336,14153
1337,14171.39
1338,14187.18
1339,14202.3
1340,14205.97
1341,14185.7
1342,14147.49
1343,14118.95
1344,14124.21
1345,14148.92
1346,14160.06
1347,14138.5
1348,14106.26
1349,14092.2
1350,14103.82
1351,14123.76
1352,14134.98
1353,14133.84
1354,14123.08
1355,14108.07
1356,14101.47
1357,14116.7
1358,14153.28
1359,14195.5
1360,14227.84
1361,14241.69
1362,14231.49
1363,14199.93
1364,14170.27
1365,14168.05
1366,14197.94
1367,14244.25
1368,14291.45
1369,14330.05
1370,14352.87
1371,14357.63
1372,14352.44
1373,14346.73
1374,14349.61
1375,14369.92
1376,14410.59
1377,14445.81
1378,14441.43
1379,14396.08
1380,14364.32
1381,14399.52
1382,14474.95
1383,14511.56
1384,14459
1385,14375.73
1386,14343.56
1387,14378.3
1388,14409.56
1389,14371.88
1390,14288.35
1391,14225.18
1392,14222.73
1393,14252.82
1394,14277.1
1395,14278.71
1396,14261.14
1397,14229.43
1398,14192.55
1399,14160.8
1400,14140.74
1401,14132.18
1402,14134.28
1403,14146.2
1404,14167.18
1405,14192.11
1406,14201.05
1407,14171.83
1408,14115.56
1409,14082.67
1410,14114.8
1411,14177.33
1412,14204.04
1413,14168.15
1414,14126.74
1415,14142.7
1416,14207.03
1417,14257.32
1418,14251.58
1419,14232.35
1420,14261.16
1421,14341.7
1422,14404.42
1423,14387.61
1424,14320.43
1425,14271.32
1426,14276.62
1427,14303.61
1428,14313.12
1429,14301.03
1430,14288.65
1431,14290.23
1432,14292.12
1433,14275.08
1434,14244.3
1435,14233.43
1436,14269.37
1437,14326.67
1438,14359.98
1439,14348.14
1440,14314.58
1441,14285.92
1442,14271.59
1443,14270.52
1444,14281.06
1445,14300.25
1446,14324.91
1447,14352.67
1448,14381.86
1449,14409.66
1450,14427.97
1451,14427.48
1452,14414.55
1453,14416.66
1454,14454.87
1455,14493.64
1456,14473.22
1457,14384.11
1458,14315.82
1459,14358.24
1460,14474.21
1461,14547.27
1462,14510.08
1463,14438.52
1464,14429.27
1465,14494.24
1466,14571.81
1467,14611.08
1468,14615.03
1469,14600.06
1470,14575.7
1471,14543.41
1472,14507.12
1473,14487.44
1474,14510.44
1475,14574.19
1476,14633.29
1477,14645.37
1478,14622.06
1479,14600.28
1480,14601.3
1481,14614.21
1482,14624.95
1483,14627.51
1484,14620.74
1485,14604.34
1486,14580.15
1487,14550.53
1488,14520.99
1489,14499.46
1490,14491.48
1491,14494.65
1492,14504.69
1493,14512.69
1494,14505.44
1495,14477.04
1496,14451.52
1497,14459.34
1498,14498.64
1499,14532.47
1500,14531.76
1501,14514.48
1502,14512.16
1503,14535.58
1504,14569.32
1505,14598.56
1506,14621.55
1507,14641.04
1508,14656.93
1509,14665
1510,14662.4
1511,14656.68
1512,14659.41
1513,14673.85
1514,14690.07
1515,14699.06
1516,14706.43
1517,14724.03
1518,14749.79
1519,14758.07
1520,14726.91
1521,14680.53
1522,14664.36
1523,14700.68
1524,14770.1
1525,14848.14
1526,14905.17
1527,14909.26
1528,14860.17
1529,14815.9
1530,14832.1
1531,14892.34
1532,14945.06
1533,14959.97
1534,14946.49
1535,14918.42
1536,14890.16
1537,14876.35
1538,14879.9
1539,14882.58
1540,14867.37
1541,14844.11
1542,14835.1
1543,14850.06
1544,14876.96
1545,14902.51
1546,14920.25
1547,14926.77
1548,14924.97
1549,14927.79
1550,14946.78
1551,14978.04
1552,15011.48
1553,15038.51
1554,15052.75
1555,15049.39
1556,15031.58
1557,15005.57
1558,14985.65
1559,14996.45
1560,15052.73
1561,15116.48
1562,15134.99
1563,15108.95
1564,15099.2
1565,15148.53
1566,15210.28
1567,15217.59
1568,15173.77
1569,15149.26
1570,15190.75
1571,15254.15
1572,15279.67
1573,15268.13
1574,15268.28
1575,15308.07
1576,15354.9
1577,15369.83
1578,15360.66
1579,15364.92
1580,15400.22
1581,15440.29
1582,15458.13
1583,15468.72
1584,15507.63
1585,15575.9
1586,15617.08
1587,15584.67
1588,15527.03
1589,15526.73
1590,15597.83
1591,15668.11
1592,15680.85
1593,15672.84
1594,15704.01
1595,15778.35
1596,15847.33
1597,15878.66
1598,15896.97
1599,15934.84
1600,15984.39
1601,16010.37
1602,16000.45
1603,15993.24
1604,16025.99
1605,16071.54
1606,16072.8
1607,16021.7
1608,15983.97
1609,16016.07
1610,16094.56
1611,16171.61
1612,16229.06
1613,16279.26
1614,16330.6
1615,16373.81
1616,16396.86
1617,16398.48
1618,16384.76
1619,16354.72
1620,16292.25
1621,16185.94
1622,16072.1
1623,16007.1
1624,16000.43
1625,15998.89
1626,15958.5
1627,15894.25
1628,15836.24
1629,15801.83
1630,15797.65
1631,15815.18
1632,15808.64
1633,15736.23
1634,15642.38
1635,15614.74
1636,15675.4
1637,15747.61
1638,15762.43
1639,15727.51
1640,15673
1641,15626.79
1642,15614.78
1643,15644.82
1644,15678.16
1645,15674.16
1646,15642.06
1647,15616.42
1648,15621.58
1649,15666.69
1650,15749.5
1651,15822.87
1652,15830.44
1653,15770.14
1654,15684.05
1655,15606.98
1656,15553.99
1657,15536.47
1658,15558.46
1659,15620
1660,15696.59
1661,15733.99
1662,15701.66
1663,15658
1664,15673.96
1665,15740.47
1666,15797.54
1667,15812.7
1668,15802.33
1669,15783.65
1670,15753.33
1671,15703.22
1672,15655.03
1673,15656.59
1674,15725.99
1675,15809.43
1676,15849.6
1677,15838.45
1678,15789.61
1679,15733.93
1680,15721.69
1681,15778.99
1682,15854.47
1683,15888.43
1684,15882.14
1685,15869.44
1686,15860.96
1687,15834.41
1688,15778.73
1689,15734.73
1690,15750.63
1691,15816.14
1692,15883.32
1693,15917.8
1694,15908.61
1695,15855.08
1696,15792.77
1697,15765.33
1698,15787.53
1699,15852.91
1700,15938.03
1701,15989.74
1702,15969.67
1703,15927.62
1704,15935.44
1705,15989.9
1706,16029.36
1707,16015.5
1708,15957.55
1709,15876.1
1710,15821.67
1711,15849.34
1712,15935.79
1713,15995.98
1714,15990.45
1715,15969.67
1716,15982.6
1717,16020.22
1718,16056.18
1719,16071.83
1720,16054.56
1721,16009.14
1722,15971.17
1723,15969.97
1724,15991.4
1725,16010.76
1726,16027.08
1727,16055.57
1728,16091.9
1729,16099.83
1730,16055.87
1731,15998.14
1732,15976.14
1733,15997.84
1734,16046.06
1735,16095.59
1736,16110.79
1737,16073.88
1738,16027.04
1739,16017.82
1740,16038
1741,16052.86
1742,16052.73
1743,16055.73
1744,16072.41
1745,16090.86
1746,16098.66
1747,16101.61
1748,16111.47
1749,16124.92
1750,16125.91
1751,16112.33
1752,16108.56
1753,16127.9
1754,16123.38
1755,16042.05
1756,15944.48
1757,15958.32
1758,16095.08
1759,16212.21
1760,16209.31
1761,16139.65
1762,16078.92
1763,16066.16
1764,16121.74
1765,16200.62
1766,16199.86
1767,16090.68
1768,15987.65
1769,15990.98
1770,16073.03
1771,16172.86
1772,16231.93
1773,16195.39
1774,16084.24
1775,16009.2
1776,16036.28
1777,16107.9
1778,16157.11
1779,16169.08
1780,16147.93
1781,16114.31
1782,16100.17
1783,16114.89
1784,16135.08
1785,16142.53
1786,16141.79
1787,16141.89
1788,16153.48
1789,16186.3
1790,16224.25
1791,16230.82
1792,16195.72
1793,16150.97
1794,16123.41
1795,16111.18
1796,16108.19
1797,16118.68
1798,16150.25
1799,16193.54
1800,16225.32
1801,16230.54
1802,16207.82
1803,16164.36
1804,16130.34
1805,16134.75
1806,16168.43
1807,16207.16
1808,16232.2
1809,16229.51
1810,16210.6
1811,16223.7
1812,16292.47
1813,16364
1814,16384.12
1815,16366.11
1816,16344.9
1817,16332.99
1818,16328.02
1819,16326.88
1820,16325.81
1821,16314.53
1822,16268.29
1823,16174.25
1824,16079.66
1825,16042.95
1826,16077.74
1827,16173.19
1828,16288.08
1829,16353.79
1830,16339.18
1831,16276.65
1832,16203.1
1833,16151.09
1834,16144.42
1835,16160.83
1836,16164.58
1837,16154.33
1838,16149.85
1839,16141.08
1840,16084.77
1841,15997.62
1842,16016.29
1843,16217.69
1844,16420.13
1845,16423.81
1846,16283.6
1847,16149.81
1848,16088.35
1849,16105.29
1850,16173.25
1851,16227.23
1852,16231.94
1853,16215.54
1854,16206.16
1855,16205.57
1856,16208.79
1857,16204.02
1858,16180.3
1859,16166.84
1860,16215.64
1861,16289.1
1862,16254.9
1863,16093.97
1864,15993.29
1865,16071.85
1866,16187.35
1867,16186.13
1868,16099.68
1869,16013.53
1870,15973.96
1871,16003.67
1872,16072.05
1873,16105.1
1874,16090.07
1875,16097.81
1876,16163.24
1877,16231.95
1878,16255.93
1879,16250.27
1880,16238.46
1881,16212.53
1882,16155.53
1883,16075.09
1884,15994.03
1885,15953.69
1886,16009.87
1887,16136.49
1888,16195.17
1889,16124.63
1890,16043.61
1891,16054.4
1892,16127.69
1893,16209.48
1894,16260.11
1895,16246.94
1896,16158.6
1897,15999.68
1898,15850.93
1899,15847.02
1900,15981.24
1901,16084.98
1902,16072.61
1903,16013.68
1904,15971.29
1905,15954.21
1906,15949.9
1907,15896.24
1908,15746.69
1909,15617.03
1910,15659.49
1911,15812.44
1912,15906.82
1913,15898.81
1914,15842.78
1915,15789.39
1916,15781.54
1917,15818.5
1918,15831.64
1919,15796.7
1920,15802.63
1921,15899.46
1922,15960.13
1923,15870.74
1924,15751.9
1925,15764.52
1926,15863.52
1927,15925.01
1928,15918.66
1929,15870.3
1930,15811.92
1931,15779.49
1932,15794.04
1933,15859.07
1934,15935.54
1935,15922.04
1936,15785.77
1937,15645.64
1938,15603.61
1939,15660.59
1940,15779.16
1941,15841.86
1942,15747.25
1943,15586.39
1944,15498.94
1945,15504.54
1946,15565.46
1947,15611.02
1948,15558.29
1949,15439.28
1950,15372.04
1951,15374.04
1952,15360.45
1953,15328.83
1954,15388.99
1955,15544.71
1956,15609.58
1957,15502.65
1958,15410.84
1959,15463.49
1960,15530.6
1961,15482.05
1962,15351.11
1963,15206.49
1964,15109.02
1965,15107.23
1966,15187.68
1967,15307.51
1968,15375.52
1969,15295.39
1970,15154.06
1971,15131.79
1972,15213.96
1973,15250.92
1974,15214.4
1975,15183.76
1976,15192.15
1977,15219.29
1978,15234.42
1979,15197.28
1980,15108
1981,15029.56
1982,14998.65
1983,14993.26
1984,14983.26
1985,14934.68
1986,14846.2
1987,14803.9
1988,14863.94
1989,14943.2
1990,14958.81
1991,14931.84
1992,14900.29
1993,14869.13
1994,14833.68
1995,14786.31
1996,14723.71
1997,14674.86
1998,14673.91
1999,14704.11
2000,14727.41
2001,14714.35
2002,14647.53
2003,14585.45
2004,14617.41
2005,14693.35
2006,14686.65
2007,14637.18
2008,14690.86
2009,14785.71
2010,14707.01
2011,14484.61
2012,14356.71
2013,14380.52
2014,14435.87
2015,14461.75
2016,14466.06
2017,14451.42
2018,14411.18
2019,14352.38
2020,14298.81
2021,14249.54
2022,14170.88
2023,14072.78
2024,14028.31
2025,14055
2026,14081.22
2027,14068.65
2028,14042.46
2029,13998.08
2030,13873.83
2031,13702.87
2032,13689.6
2033,13871.6
2034,13957.32
2035,13819.72
2036,13701.06
2037,13734.82
2038,13769.74
2039,13719.09
2040,13684.82
2041,13699.62
2042,13615.67
2043,13401.55
2044,13302.17
2045,13450
2046,13682.41
2047,13827.58
2048,13768.72
2049,13515.19
2050,13316.06
2051,13320.24
2052,13419.73
2053,13485.43
2054,13407.69
2055,13191.15
2056,13053.17
2057,13075.12
2058,13043.3
2059,12891.07
2060,12870.81
2061,13076.92
2062,13275.26
2063,13301.81
2064,13163.61
2065,12971.64
2066,12969.61
2067,13141.36
2068,13076.61
2069,12728.31
2070,12590.98
2071,12794.16
2072,12945.17
2073,12878.34
2074,12745.87
2075,12671.51
2076,12719.63
2077,12812.17
2078,12738.77
2079,12548.69
2080,12526.83
2081,12645.07
2082,12614.53
2083,12441.89
2084,12357.7
2085,12385.14
2086,12403.19
2087,12371.88
2088,12309.49
2089,12281.53
2090,12355.28
2091,12394.25
2092,12211.16
2093,11984.28
2094,11985.32
2095,12079.19
2096,12033.8
2097,11916.6
2098,11855.16
2099,11810.43
2100,11735.93
2101,11730.43
2102,11840.81
2103,11842.64
2104,11607.81
2105,11405.46
2106,11419.56
2107,11499.91
2108,11526.47
2109,11519.14
2110,11486.03
2111,11394.88
2112,11279.16
2113,11256.52
2114,11294.23
2115,11201.32
2116,10986.99
2117,10836.47
2118,10792.9
2119,10793.28
2120,10807.57
2121,10826.04
2122,10832.18
2123,10815.8
2124,10827.57
2125,10905.59
2126,10912.36
2127,10739.13
2128,10586.66
2129,10594.09
2130,10508.93
2131,10230.81
2132,10160.03
2133,10411.84
2134,10486.5
2135,10233.88
2136,10059.22
2137,10077.78
2138,10062.65
2139,9983.338
2140,9973.62
2141,10016.64
2142,10004.33
2143,9898.072
2144,9706.409
2145,9511.934
2146,9410.458
2147,9438.958
2148,9591.927
2149,9780.589
2150,9877.343
2151,9706.68
2152,9308.372
2153,9083.606
2154,9140.541
2155,9193.27
2156,9163.629
2157,9172.666
2158,9180.418
2159,9059.543
2160,8892.426
2161,8830.551
2162,8837.738
2163,8839.319
2164,8860.978
2165,8906.426
2166,8859.078
2167,8661.662
2168,8403.035
2169,8182.234
2170,8086.883
2171,8124.551
2172,8221.615
2173,8216.148
2174,7949.758
2175,7704.751
2176,7826.012
2177,7995.31
2178,7872.126
2179,7688.124
2180,7654.773
2181,7697.441
2182,7736.639
2183,7738.974
2184,7675.718
2185,7523.471
2186,7310.534
2187,7106.734
2188,7032.895
2189,7167.919
2190,7295.828
2191,7209.705
2192,6975.377
2193,6752.455
2194,6775.109
2195,6988.218
2196,6995.479
2197,6786.647
2198,6651.74
2199,6620.56
2200,6588.495
2201,6487.507
2202,6326.633
2203,6321.497
2204,6512.959
2205,6519.381
2206,6276.884
2207,6167.495
2208,6256.343
2209,6341.434
2210,6326.521
2211,6204.792
2212,6126.202
2213,6164.495
2214,6036.949
2215,5667.26
2216,5442.264
2217,5504.88
2218,5680.156
2219,5748.891
2220,5535.321
2221,5271.258
2222,5235.897
2223,5281.708
2224,5255.104
2225,5198.146
2226,5150.167
2227,5113.646
2228,5065.232
2229,4967.396
2230,4811.001
2231,4638.478
2232,4646.865
2233,4863.607
2234,4856.289
2235,4568.337
2236,4485.348
2237,4639.172
2238,4719.715
2239,4664.652
2240,4524.254
2241,4348.75
2242,4227.383
2243,4321.346
2244,4509.147
2245,4368.667
2246,4013.495
2247,3860.144
2248,3900.986
2249,3978.249
2250,3966.608
2251,3844.458
2252,3750.653
2253,3759.642
2254,3858.632
2255,3926.653
2256,3836.892
2257,3672.629
2258,3559.577
2259,3586.241
2260,3680.99
2261,3604.844
2262,3333.719
2263,3006.548
2264,2850.088
2265,2980.385
2266,3137.185
2267,3130.135
2268,2964.224
2269,2760.476
2270,2686.589
2271,2721.85
2272,2787.34
2273,2851.886
2274,2895.995
2275,2901.255
2276,2801.665
2277,2541.765
2278,2386.326
2279,2563.892
2280,2791.126
2281,2806.968
2282,2551.018
2283,2220.053
2284,2126.667
2285,2133.865
2286,2055.113
2287,2059.523
2288,2137.183
2289,1976.492
2290,1731.546
2291,1784.025
2292,1898.486
2293,1841.092
2294,1882.039
2295,2022.977
2296,1908.652
2297,1664.388
2298,1585.413
2299,1461.331
2300,1191.018
