400,37603.62
401,37578.61
402,37472.29
403,37354.71
404,37303.63
405,37372.96
406,37507.27
407,37619.62
408,37628.84
409,37533.43
410,37393.31
411,37269.45
412,37198.46
413,37170.05
414,37168.6
415,37180.5
416,37202.32
417,37234.09
418,37275.29
419,37316.7
420,37341.71
421,37333.63
422,37287.53
423,37223.18
424,37163.35
425,37126.91
426,37111.05
427,37105.3
428,37099.57
429,37089.14
430,37074.13
431,37054.74
432,37028.96
433,36990.02
434,36930.5
435,36847.09
436,36759.11
437,36693.8
438,36676.09
439,36691.88
440,36693.67
441,36633.32
442,36496.06
443,36334.79
444,36210.39
445,36169.83
446,36188.61
447,36219.04
448,36216.05
449,36172.05
450,36108.93
451,36049.14
452,36006.3
453,35977.92
454,35959.82
455,35944.35
456,35907.88
457,35822.38
458,35664.15
459,35462.26
460,35281.47
461,35186.11
462,35193.87
463,35251.21
464,35298.77
465,35290.75
466,35229.71
467,35129.31
468,35003.8
469,34873.83
470,34763.59
471,34696.47
472,34673.72
473,34669.61
474,34656.9
475,34618.45
476,34564.73
477,34510.9
478,34469.61
479,34437.09
480,34402.84
481,34356.92
482,34300.9
483,34246.86
484,34207.11
485,34183.29
486,34155.89
487,34103.01
488,34010.18
489,33896.88
490,33792.26
491,33722.91
492,33686.63
493,33662.69
494,33630.47
495,33583.69
496,33535.59
497,33500.76
498,33484.83
499,33467.03
500,33421.75
501,33329.93
502,33216.75
503,33126.06
504,33098.94
505,33126.58
506,33155.75
507,33132.3
508,33037.08
509,32915.45
510,32819.42
511,32784.32
512,32778.68
513,32754.32
514,32669.46
515,32540.81
516,32416.92
517,32344.98
518,32330.95
519,32335.15
520,32315.84
521,32248.7
522,32148.63
523,32035.83
524,31928.47
525,31835.26
526,31762
527,31713.23
528,31679.28
529,31641.56
530,31581.82
531,31496.08
532,31397.99
533,31302.26
534,31219.75
535,31151.94
536,31098.88
537,31059.24
538,31024.54
539,30983.99
540,30928.18
541,30863.81
542,30808.11
543,30777.91
544,30771.67
545,30764.77
546,30731.28
547,30658.63
548,30566.77
549,30480.5
550,30418.77
551,30371.66
552,30320.23
553,30247.96
554,30163.77
555,30092.22
556,30057.16
557,30056.4
558,30057.88
559,30028.13
560,29952.26
561,29855.55
562,29768.42
563,29713.41
564,29679.68
565,29647.53
566,29599.22
567,29533.97
568,29459.79
569,29384.62
570,29313.99
571,29251.17
572,29199.29
573,29159.89
574,29131.74
575,29113.35
576,29100.6
577,29080.79
578,29039.54
579,28966.78
580,28880.1
581,28807.87
582,28775.71
583,28773.93
584,28767.53
585,28721.89
586,28631.29
587,28526.5
588,28440.44
589,28389.99
590,28356.01
591,28314.49
592,28247.82
593,28165.05
594,28082.16
595,28013.52
596,27960.82
597,27919.66
598,27885.58
599,27853.49
600,27817.78
601,27772.96
602,27719.62
603,27667.13
604,27625.45
605,27595.54
606,27555.76
607,27481.08
608,27358.63
609,27230.75
610,27155.3
611,27180.19
612,27271.12
613,27352.57
614,27353.12
615,27272.68
616,27171.67
617,27111.18
618,27108.38
619,27118.53
620,27092.49
621,27004.43
622,26883.59
623,26767.09
624,26683.52
625,26626.44
626,26580.38
627,26532.13
628,26484.61
629,26447.93
630,26430.98
631,26425.46
632,26410.39
633,26365.25
634,26289.85
635,26208.23
636,26145.59
637,26115.06
638,26106.66
639,26107.83
640,26106.41
641,26091.5
642,26052.44
643,25982.67
644,25897.65
645,25820.17
646,25770.44
647,25745.43
648,25729.25
649,25706.63
650,25673.81
651,25637.01
652,25602.52
653,25566.59
654,25511.98
655,25420.67
656,25293.05
657,25168.49
658,25091.13
659,25087.37
660,25123.53
661,25153.29
662,25138.58
663,25086.01
664,25017.64
665,24953.86
666,24900.47
667,24855.34
668,24816.08
669,24776.88
670,24729.12
671,24664.39
672,24583.69
673,24499.68
674,24425.69
675,24370.59
676,24335.03
677,24318.73
678,24317.36
679,24314.79
680,24292.87
681,24238.55
682,24161.5
683,24077.7
684,24001.75
685,23938.97
686,23890.67
687,23857.33
688,23830.24
689,23794.83
690,23737.48
691,23664.29
692,23599.86
693,23568.86
694,23575.79
695,23597.93
696,23610.8
697,23596.52
698,23550.08
699,23467.98
700,23355.84
701,23245.53
702,23173.49
703,23163.75
704,23187.21
705,23200.61
706,23168.28
707,23102.57
708,23034.85
709,22993.3
710,22975.71
711,22962.54
712,22935.13
713,22890.35
714,22837.57
715,22786.33
716,22743.28
717,22711.8
718,22694.97
719,22687.88
720,22673.31
721,22633.16
722,22562.94
723,22487.47
724,22435.28
725,22422.76
726,22429.82
727,22429.5
728,22400.33
729,22344.05
730,22268.65
731,22182.63
732,22097.75
733,22027.01
734,21981.56
735,21956.78
736,21939.85
737,21918.37
738,21885.59
739,21838.74
740,21775.58
741,21702.41
742,21633.6
743,21583.32
744,21551.45
745,21520.02
746,21470.33
747,21399.88
748,21332.89
749,21295.87
750,21300.95
751,21329.06
752,21357.1
753,21367.14
754,21356.19
755,21323.95
756,21273.03
757,21217.41
758,21173.8
759,21154.21
760,21146.4
761,21130.29
762,21088.93
763,21027.3
764,20959.78
765,20899.47
766,20847.69
767,20799.19
768,20749.02
769,20696.98
770,20646.29
771,20600.19
772,20562.06
773,20535.41
774,20523.34
775,20517.48
776,20496.56
777,20439.19
778,20348.2
779,20260.59
780,20215.49
781,20227.79
782,20269.76
783,20309.44
784,20324.79
785,20315.39
786,20283.75
787,20232.56
788,20165.07
789,20084.62
790,19997.77
791,19922.3
792,19878.38
793,19878.14
794,19898.97
795,19908.88
796,19882
797,19825.37
798,19757.13
799,19694.43
800,19648.17
801,19626.63
802,19634.8
803,19650.18
804,19636.41
805,19561.88
806,19445.73
807,19337.93
808,19285.07
809,19284.94
810,19299.95
811,19293.29
812,19253.43
813,19190.46
814,19115.18
815,19039.35
816,18975.74
817,18936.64
818,18920.38
819,18908.84
820,18883.36
821,18840.65
822,18798.48
823,18775.83
824,18774.55
825,18769.26
826,18732.39
827,18656.45
828,18570.91
829,18509.01
830,18487.97
831,18490.81
832,18496.27
833,18488.52
834,18465.08
835,18425.48
836,18371.73
837,18312.79
838,18258.83
839,18216.15
840,18178.65
841,18137.73
842,18087.85
843,18034.86
844,17987.19
845,17950.75
846,17920.7
847,17889.41
848,17851.57
849,17813.08
850,17783.15
851,17768.34
852,17761.01
853,17748.76
854,17721.75
855,17685.45
856,17651.02
857,17627.79
858,17612.66
859,17597.37
860,17574.46
861,17542.38
862,17502.24
863,17455.74
864,17409.17
865,17371.13
866,17348.63
867,17334.48
868,17313.74
869,17273.43
870,17220.85
871,17175.19
872,17153.78
873,17152.35
874,17153.02
875,17138.84
876,17105.8
877,17058.63
878,17002.73
879,16950.73
880,16920.4
881,16927.69
882,16961.36
883,16989.61
884,16982.39
885,16942.9
886,16900.85
887,16884.74
888,16891.74
889,16892.89
890,16860.36
891,16799.22
892,16743.17
893,16724.97
894,16743.61
895,16767.56
896,16765.67
897,16734.44
898,16696.16
899,16673.13
900,16667.79
901,16663.6
902,16643.9
903,16605.67
904,16559.24
905,16515.16
906,16477.36
907,16443.11
908,16409.62
909,16379.07
910,16358.73
911,16355.47
912,16362.24
913,16357.73
914,16321.03
915,16255.14
916,16187.68
917,16146.37
918,16136.37
919,16139.56
920,16137.07
921,16116.83
922,16073.7
923,16003.47
924,15916.37
925,15837.34
926,15790.74
927,15774.5
928,15759.99
929,15718.96
930,15655.9
931,15607.67
932,15610.34
933,15655.1
934,15689.77
935,15662.98
936,15574.02
937,15469.92
938,15397.65
939,15369.48
940,15365.93
941,15366.93
942,15362.41
943,15351.15
944,15332.53
945,15311.51
946,15297.73
947,15299.98
948,15310.59
949,15308.53
950,15274.31
951,15216.77
952,15166.67
953,15152.69
954,15167.16
955,15175.72
956,15146.25
957,15082.24
958,15012.02
959,14962.66
960,14941.74
961,14944.15
962,14964.24
963,14993.23
964,15020.42
965,15035.65
966,15034.25
967,15014.66
968,14976.02
969,14923.49
970,14865.4
971,14809.91
972,14763.85
973,14733.36
974,14723.13
975,14727.15
976,14734.68
977,14736.01
978,14728.54
979,14712.5
980,14688.26
981,14656.82
982,14619.39
983,14577.89
984,14537.79
985,14505.77
986,14486.9
987,14478.52
988,14475.74
989,14474.51
990,14474.31
991,14475.59
992,14477.47
993,14474.18
994,14458.84
995,14427.36
996,14384.81
997,14338.12
998,14292.38
999,14247.48
1000,14202.35
1001,14158.52
1002,14124.08
1003,14108.08
1004,14111.99
1005,14120.41
1006,14115.76
1007,14086.35
1008,14047.58
1009,14022.6
1010,14026.52
1011,14042.37
1012,14045.18
1013,14019.53
1014,13982.82
1015,13959.53
1016,13962.82
1017,13972.33
1018,13961.55
1019,13916.99
1020,13858.13
1021,13809.49
1022,13786.48
1023,13784.75
1024,13797.34
1025,13815.06
1026,13824.62
1027,13812.51
1028,13778.33
1029,13742.11
1030,13725.17
1031,13729.72
1032,13732.74
1033,13710.36
1034,13661.51
1035,13610.52
1036,13581.99
1037,13580.35
1038,13591.28
1039,13600.4
1040,13602.3
1041,13598.47
1042,13590.4
1043,13577.05
1044,13555.81
1045,13525.4
1046,13496.45
1047,13485.75
1048,13505.48
1049,13536.58
1050,13546.98
1051,13513.37
1052,13458.95
1053,13422.18
1054,13429.77
1055,13460.14
1056,13479.33
1057,13464.88
1058,13430.91
1059,13398.76
1060,13381.4
1061,13371.14
1062,13357.22
1063,13336.26
1064,13319
1065,13317.55
1066,13332.52
1067,13347.28
1068,13344.4
1069,13323.34
1070,13303.2
1071,13303.26
1072,13326.04
1073,13358.85
1074,13389.24
1075,13413.78
1076,13435.31
1077,13456.85
1078,13482.13
1079,13515.27
1080,13559.43
1081,13611.96
1082,13667.91
1083,13721.55
1084,13763.37
1085,13782.86
1086,13775.72
1087,13758.26
1088,13750.96
1089,13763.42
1090,13779.4
1091,13779.05
1092,13752
1093,13704.28
1094,13643.61
1095,13579.69
1096,13524.74
1097,13490.48
1098,13475.44
1099,13465.9
1100,13448.42
1101,13418.29
1102,13376.65
1103,13325.57
1104,13273.72
1105,13232.93
1106,13211.81
1107,13201.68
1108,13188.08
1109,13162.88
1110,13140.97
1111,13142.45
1112,13173.46
1113,13205.65
1114,13205.77
1115,13164.73
1116,13114.7
1117,13091.17
1118,13106.7
1119,13146.65
1120,13194.42
1121,13227.4
1122,13217.98
1123,13143.31
1124,13028.56
1125,12926.16
1126,12879.38
1127,12873.19
1128,12870.36
1129,12843.47
1130,12803.72
1131,12771.86
1132,12756.49
1133,12735.23
1134,12681.21
1135,12592.66
1136,12510.03
1137,12476.35
1138,12494.55
1139,12522.74
1140,12519.43
1141,12482.24
1142,12437.96
1143,12411.49
1144,12406.91
1145,12418.22
1146,12438.46
1147,12456.33
1148,12459.19
1149,12440.25
1150,12410.43
1151,12383.84
1152,12367.51
1153,12355
1154,12338.52
1155,12315.23
1156,12288.25
1157,12261.1
1158,12237.94
1159,12223.48
1160,12220.73
1161,12219.09
1162,12201.32
1163,12156.92
1164,12107.44
1165,12083.74
1166,12102.71
1167,12142.25
1168,12173.76
1169,12182.28
1170,12175.77
1171,12164.19
1172,12153.09
1173,12143.41
1174,12135.67
1175,12127.6
1176,12115.22
1177,12095.11
1178,12067.7
1179,12034.87
1180,11998.96
1181,11963.86
1182,11933.82
1183,11912.74
1184,11903.84
1185,11909.93
1186,11923.36
1187,11923.98
1188,11893.21
1189,11842.52
1190,11804.81
1191,11807.33
1192,11836.16
1193,11860.33
1194,11856.61
1195,11830.11
1196,11792.41
1197,11755.29
1198,11730.88
1199,11730.84
1200,11751.05
1201,11768.91
1202,11762.88
1203,11737.4
1204,11714.47
1205,11712.1
1206,11721.59
1207,11724.17
1208,11708.29
1209,11685.63
1210,11672.41
1211,11674.93
1212,11682.21
1213,11682.03
1214,11674.12
1215,11669.88
1216,11679.61
1217,11698.44
1218,11713.2
1219,11714.29
1220,11708.99
1221,11709.47
1222,11722.48
1223,11741.83
1224,11759.46
1225,11767.73
1226,11759.52
1227,11728.76
1228,11682.77
1229,11638.27
1230,11609.36
1231,11593.03
1232,11579.92
1233,11564.81
1234,11554.63
1235,11558.42
1236,11576.5
1237,11595.84
1238,11603.18
1239,11599.76
1240,11598.64
1241,11610.03
1242,11622.25
1243,11614.28
1244,11576.12
1245,11534.04
1246,11521.49
1247,11548.59
1248,11587.08
1249,11606.42
1250,11598.22
1251,11573.05
1252,11542.49
1253,11521.08
1254,11524.63
1255,11558.29
1256,11592.24
1257,11589.96
1258,11545.15
1259,11499.83
1260,11497.46
1261,11533.83
1262,11566.2
1263,11558.95
1264,11529.82
1265,11517.81
1266,11544.65
1267,11581.47
1268,11590.74
1269,11562.76
1270,11526.79
1271,11512.89
1272,11523.69
1273,11542.75
1274,11555.4
1275,11558.17
1276,11551.29
1277,11537.95
1278,11528.37
1279,11533.33
1280,11551.62
1281,11568.69
1282,11571.09
1283,11562.4
1284,11555.28
1285,11558.88
1286,11568.56
1287,11576.44
1288,11578.87
1289,11579.42
1290,11582.31
1291,11590.7
1292,11606.92
1293,11630.64
1294,11646.02
1295,11631.54
1296,11581.86
1297,11532.25
1298,11523
1299,11557.89
1300,11599.12
1301,11611.26
1302,11600.04
1303,11592.72
1304,11606.8
1305,11624.61
1306,11621.09
1307,11591.89
1308,11564.21
1309,11565.6
1310,11593.63
1311,11625.24
1312,11641.14
1313,11641.93
1314,11634.04
1315,11623.99
1316,11618.34
1317,11623.36
1318,11639.12
1319,11660.4
1320,11681.88
1321,11698.58
1322,11705.67
1323,11703.31
1324,11703.34
1325,11718.77
1326,11751.06
1327,11790.01
1328,11825.48
1329,11851.25
1330,11862.79
1331,11859.15
1332,11848.97
1333,11842.25
1334,11843.04
1335,11848.72
1336,11856.62
1337,11866.41
1338,11878.89
1339,11893.72
1340,11907.46
1341,11916.18
1342,11920.16
1343,11924.52
1344,11933.67
1345,11943.6
1346,11946.26
1347,11936.21
1348,11915.75
1349,11888.8
1350,11864.36
1351,11857.33
1352,11878.89
1353,11907.65
1354,11906.87
1355,11861.14
1356,11814.67
1357,11820.08
1358,11874.82
1359,11915.99
1360,11890
1361,11832.07
1362,11815.95
1363,11878.8
1364,11965.7
1365,12010
1366,12001.39
1367,11984.41
1368,11998.14
1369,12034.45
1370,12067.54
1371,12084.05
1372,12097.03
1373,12121.67
1374,12152.34
1375,12166.3
1376,12148.16
1377,12120.81
1378,12118.53
1379,12153.25
1380,12198.86
1381,12227.54
1382,12236.13
1383,12237.55
1384,12242.21
1385,12250.21
1386,12259.1
1387,12258.78
1388,12229.15
1389,12155.57
1390,12073.35
1391,12042.22
1392,12089.68
1393,12158.47
1394,12180.1
1395,12140.29
1396,12076.29
1397,12022.54
1398,11986.57
1399,11966.81
1400,11959.17
1401,11955.05
1402,11946.29
1403,11935.84
1404,11933.95
1405,11948.46
1406,11978.51
1407,12020.86
1408,12057.16
1409,12051.3
1410,11977.15
1411,11884.17
1412,11853.15
1413,11917.74
1414,12011.37
1415,12059.01
1416,12050.01
1417,12021.55
1418,12003.96
1419,11996.21
1420,11989.98
1421,11986.81
1422,12000.75
1423,12041.39
1424,12080.97
1425,12075.58
1426,12012.77
1427,11947.44
1428,11938.96
1429,11987.01
1430,12047.96
1431,12085.72
1432,12095.67
1433,12080.63
1434,12050.44
1435,12023.12
1436,12015.48
1437,12033.45
1438,12078.67
1439,12138.73
1440,12175.66
1441,12153.89
1442,12094.99
1443,12055.23
1444,12069.17
1445,12106.81
1446,12127.95
1447,12122.92
1448,12110.11
1449,12105.78
1450,12111.66
1451,12125.32
1452,12145.07
1453,12170.15
1454,12198.75
1455,12221.17
1456,12224.44
1457,12213.24
1458,12227.06
1459,12303.11
1460,12406.88
1461,12459.15
1462,12415.45
1463,12332.35
1464,12281.38
1465,12279.4
1466,12295.88
1467,12305.59
1468,12311.47
1469,12323.24
1470,12340.09
1471,12348.86
1472,12339.55
1473,12324.32
1474,12322.91
1475,12340.87
1476,12361.61
1477,12369.55
1478,12372.07
1479,12387.31
1480,12420.02
1481,12447.83
1482,12448.09
1483,12430.87
1484,12426.09
1485,12447.13
1486,12463.78
1487,12441.86
1488,12392.88
1489,12362.8
1490,12379.84
1491,12411.2
1492,12413.13
1493,12373.47
1494,12309.02
1495,12241.56
1496,12208.2
1497,12247.94
1498,12343.25
1499,12415.08
1500,12401.54
1501,12339.01
1502,12292.58
1503,12292.68
1504,12326.04
1505,12375.84
1506,12421.33
1507,12440.68
1508,12428.93
1509,12405.31
1510,12389.32
1511,12390.37
1512,12413.74
1513,12454.37
1514,12490.98
1515,12505.11
1516,12509.17
1517,12528.68
1518,12566.48
1519,12586.9
1520,12557.96
1521,12505.85
1522,12483.37
1523,12512.57
1524,12560.19
1525,12591.23
1526,12604.15
1527,12613.41
1528,12625.3
1529,12630.78
1530,12622.47
1531,12620.28
1532,12657.2
1533,12733.89
1534,12791.22
1535,12774.29
1536,12715.7
1537,12690.13
1538,12728.93
1539,12784.71
1540,12807
1541,12786.57
1542,12733.59
1543,12670.73
1544,12641.81
1545,12683.03
1546,12759.04
1547,12803.63
1548,12795.88
1549,12787.7
1550,12827.41
1551,12895.45
1552,12945.3
1553,12951.48
1554,12919.46
1555,12861.59
1556,12815.78
1557,12827.94
1558,12892.22
1559,12935.78
1560,12903.92
1561,12855.71
1562,12882.5
1563,12981.57
1564,13044.34
1565,12992.83
1566,12901.95
1567,12882.19
1568,12946.1
1569,13012.67
1570,13025
1571,13022.11
1572,13059.69
1573,13132.37
1574,13186.48
1575,13186.04
1576,13147.41
1577,13095.99
1578,13058.48
1579,13062.32
1580,13112.29
1581,13164.46
1582,13175.84
1583,13165.31
1584,13182.37
1585,13243.97
1586,13312.82
1587,13352.83
1588,13367.44
1589,13374.67
1590,13380.68
1591,13376.57
1592,13357.99
1593,13344.91
1594,13362.75
1595,13410.27
1596,13461.17
1597,13494.58
1598,13509.61
1599,13509.94
1600,13507.71
1601,13520.83
1602,13553.54
1603,13580.34
1604,13576.29
1605,13552.66
1606,13537.88
1607,13549.44
1608,13588.29
1609,13650.28
1610,13712.27
1611,13746.08
1612,13751.34
1613,13756.23
1614,13781.99
1615,13822.53
1616,13865.5
1617,13890.92
1618,13873.66
1619,13809.74
1620,13739.59
1621,13703.58
1622,13699.9
1623,13708.13
1624,13708.23
1625,13680.8
1626,13613.56
1627,13524.88
1628,13441.48
1629,13392.07
1630,13406.96
1631,13493.99
1632,13604.18
1633,13682.15
1634,13694.95
1635,13621.94
1636,13489.51
1637,13394.31
1638,13413.85
1639,13506.54
1640,13597.53
1641,13650.45
1642,13663.25
1643,13643.78
1644,13622.53
1645,13628.36
1646,13644.08
1647,13629.63
1648,13585.83
1649,13572.95
1650,13632.33
1651,13700.54
1652,13691.27
1653,13619.16
1654,13580.83
1655,13627.51
1656,13701.3
1657,13736
1658,13716.07
1659,13648.74
1660,13562.95
1661,13513.83
1662,13538.52
1663,13605.67
1664,13671.37
1665,13719.55
1666,13751.95
1667,13771.1
1668,13780.4
1669,13782.34
1670,13774.32
1671,13753.26
1672,13736.3
1673,13758.15
1674,13824.91
1675,13874.11
1676,13848.24
1677,13794.93
1678,13803.83
1679,13872.67
1680,13894.84
1681,13811.42
1682,13727.13
1683,13760.29
1684,13862.49
1685,13896.97
1686,13832.48
1687,13786.13
1688,13844.25
1689,13934
1690,13953.79
1691,13908.96
1692,13873.64
1693,13884.9
1694,13917.39
1695,13945.6
1696,13969.09
1697,13994.52
1698,14030.86
1699,14088.49
1700,14152.13
1701,14160.03
1702,14069.77
1703,13957.64
1704,13929.48
1705,13986.43
1706,14048.12
1707,14064.14
1708,14045.48
1709,14011.58
1710,13989.78
1711,14007.32
1712,14050.07
1713,14071.37
1714,14051.33
1715,14022.75
1716,14017.82
1717,14036.47
1718,14068.37
1719,14099.25
1720,14111.99
1721,14107.16
1722,14117.08
1723,14164.12
1724,14210.06
1725,14203.99
1726,14154.42
1727,14110.82
1728,14099.28
1729,14106.97
1730,14120.14
1731,14135.44
1732,14151.59
1733,14162.73
1734,14160.6
1735,14154.83
1736,14179.38
1737,14249.69
1738,14315.89
1739,14322.52
1740,14277.55
1741,14219.91
1742,14181.75
1743,14187.49
1744,14236.65
1745,14267.65
1746,14228.44
1747,14183.13
1748,14232.35
1749,14348.08
1750,14394
1751,14318.74
1752,14234.41
1753,14241.2
1754,14310.22
1755,14380.33
1756,14418.75
1757,14410.65
1758,14366.59
1759,14330.03
1760,14331.34
1761,14356.13
1762,14383.02
1763,14398.3
1764,14392.84
1765,14383.81
1766,14411.59
1767,14473.65
1768,14485.37
1769,14389.26
1770,14280.29
1771,14278.81
1772,14356.92
1773,14403.89
1774,14390.64
1775,14385.96
1776,14430.72
1777,14482.64
1778,14496.03
1779,14476.32
1780,14447.2
1781,14443.01
1782,14504.41
1783,14604.92
1784,14622.11
1785,14497.37
1786,14383.16
1787,14434.78
1788,14571.29
1789,14626.55
1790,14582.23
1791,14538.3
1792,14543.81
1793,14562.15
1794,14561.49
1795,14549.83
1796,14542.7
1797,14552.72
1798,14589.8
1799,14639.14
1800,14665.76
1801,14655.74
1802,14629.47
1803,14605.57
1804,14587.46
1805,14577.49
1806,14590.34
1807,14643.36
1808,14717.84
1809,14767.6
1810,14771.63
1811,14746.42
1812,14712.21
1813,14691.15
1814,14700.05
1815,14723.38
1816,14735.59
1817,14726.93
1818,14698.62
1819,14670.44
1820,14684.21
1821,14747.45
1822,14788.05
1823,14750.81
1824,14700.85
1825,14722.9
1826,14788.45
1827,14814.35
1828,14788.15
1829,14762.78
1830,14764.16
1831,14769.52
1832,14763.87
1833,14769.33
1834,14801.9
1835,14802.22
1836,14696.3
1837,14554.05
1838,14532.64
1839,14636.19
1840,14696.94
1841,14643.94
1842,14612.59
1843,14702.45
1844,14803.38
1845,14783.93
1846,14675.24
1847,14572.19
1848,14551.44
1849,14673.22
1850,14879.07
1851,14972.65
1852,14875.29
1853,14757.9
1854,14762.13
1855,14824.5
1856,14853.09
1857,14857.23
1858,14880.95
1859,14919.47
1860,14936.88
1861,14915.29
1862,14856.84
1863,14778.16
1864,14719.46
1865,14708.66
1866,14730.49
1867,14762.82
1868,14789.14
1869,14794.95
1870,14768.76
1871,14703.44
1872,14640.72
1873,14661.53
1874,14762.25
1875,14824.86
1876,14788.75
1877,14733.48
1878,14730.78
1879,14761.19
1880,14790.57
1881,14815.89
1882,14844.39
1883,14874.21
1884,14898.14
1885,14907.02
1886,14890.42
1887,14853.65
1888,14823.59
1889,14820.43
1890,14846.73
1891,14889.94
1892,14894.78
1893,14819.44
1894,14741.55
1895,14761.25
1896,14828.81
1897,14826.78
1898,14775.68
1899,14798.48
1900,14888.52
1901,14889.76
1902,14767.85
1903,14707.38
1904,14808.81
1905,14906.39
1906,14848.61
1907,14699.05
1908,14569.47
1909,14549.3
1910,14698.25
1911,14875.05
1912,14847.85
1913,14662.55
1914,14574.1
1915,14615.98
1916,14571.96
1917,14351.25
1918,14080.92
1919,13869.69
1920,13741.57
1921,13719.15
1922,13857.43
1923,14176.97
1924,14503.21
1925,14640.75
1926,14655.44
1927,14708.21
1928,14790.66
1929,14799.98
1930,14740.75
1931,14703.97
1932,14708.57
1933,14691.07
1934,14629.45
1935,14570.74
1936,14550.29
1937,14567.31
1938,14599.12
1939,14573.97
1940,14461.45
1941,14425.56
1942,14612.81
1943,14819.38
1944,14776.39
1945,14607.79
1946,14585.12
1947,14661.34
1948,14613.48
1949,14460.12
1950,14403.52
1951,14469.1
1952,14500.7
1953,14456.58
1954,14454.12
1955,14533.38
1956,14586.69
1957,14558.49
1958,14536.75
1959,14575.26
1960,14579.88
1961,14481.54
1962,14395.46
1963,14430.5
1964,14469.12
1965,14370.05
1966,14251.23
1967,14293.72
1968,14411.35
1969,14414.34
1970,14345.77
1971,14371.51
1972,14463.14
1973,14459.44
1974,14356.53
1975,14288.38
1976,14304.02
1977,14356.89
1978,14395.42
1979,14368.23
1980,14258.76
1981,14104.62
1982,13980.35
1983,14019.16
1984,14226.05
1985,14309.36
1986,14110.39
1987,13926.6
1988,13996.03
1989,14134.85
1990,14140.37
1991,14050.33
1992,13953.46
1993,13914.88
1994,13968.39
1995,14017.76
1996,13951.52
1997,13825.41
1998,13750.05
1999,13774.05
2000,13907.7
2001,14066.73
2002,14128.71
2003,14061.15
2004,13891.3
2005,13745.54
2006,13793.31
2007,13938.88
2008,13916.42
2009,13758.49
2010,13723.88
2011,13842.68
2012,13944.8
2013,13956.35
2014,13901.64
2015,13798.52
2016,13655.6
2017,13526.78
2018,13515.11
2019,13639.08
2020,13809.8
2021,13906.75
2022,13781.33
2023,13495.42
2024,13403.31
2025,13584.21
2026,13678.75
2027,13536.52
2028,13390.6
2029,13375.59
2030,13407.51
2031,13415.14
2032,13384.97
2033,13326.64
2034,13280.89
2035,13268.75
2036,13268.65
2037,13269.93
2038,13291.36
2039,13314.62
2040,13243.08
2041,13069.47
2042,12981.6
2043,13060.41
2044,13125.59
2045,13065.67
2046,12971.99
2047,12911.62
2048,12853.1
2049,12789.89
2050,12789.01
2051,12861.7
2052,12891.44
2053,12830.21
2054,12792.72
2055,12825.41
2056,12808.95
2057,12687.27
2058,12556.15
2059,12502.07
2060,12564.11
2061,12697.02
2062,12720.76
2063,12589.17
2064,12497
2065,12534.17
2066,12591.81
2067,12598.98
2068,12567.28
2069,12537.9
2070,12580.76
2071,12643.03
2072,12516.33
2073,12240.3
2074,12157.9
2075,12298.78
2076,12330.17
2077,12190.35
2078,12110.45
2079,12138.77
2080,12141.68
2081,12076.84
2082,11986.46
2083,11899.18
2084,11831.81
2085,11814.59
2086,11877.95
2087,11943.67
2088,11882.54
2089,11741.7
2090,11654.68
2091,11640.38
2092,11659.25
2093,11666.01
2094,11618.91
2095,11512.74
2096,11372.19
2097,11305.7
2098,11388.36
2099,11425.87
2100,11252.03
2101,11087.18
2102,11130.75
2103,11228.72
2104,11230.98
2105,11182.75
2106,11137.53
2107,11095.86
2108,11042.06
2109,10944.47
2110,10828.6
2111,10808.64
2112,10882.64
2113,10892.45
2114,10805.61
2115,10732.83
2116,10708.33
2117,10693.23
2118,10672.43
2119,10648.7
2120,10608.38
2121,10533.44
2122,10452.33
2123,10405.59
2124,10367.97
2125,10301.74
2126,10232.48
2127,10196.82
2128,10200.44
2129,10228.62
2130,10228.65
2131,10178.49
2132,10140.16
2133,10105.61
2134,9928.3
2135,9680.942
2136,9739.791
2137,10037.55
2138,10041.3
2139,9778.658
2140,9718.087
2141,9813.938
2142,9733.9
2143,9563.69
2144,9533.055
2145,9509.243
2146,9321.996
2147,9204.79
2148,9344.616
2149,9450.932
2150,9317.537
2151,9137.256
2152,9027.896
2153,8893.181
2154,8726.584
2155,8651.976
2156,8684.102
2157,8736.492
2158,8796.988
2159,8894.076
2160,8960.923
2161,8918.5
2162,8879.444
2163,8936.798
2164,8856.79
2165,8505.622
2166,8217.734
2167,8203.015
2168,8299.607
2169,8331.318
2170,8166.581
2171,7890.808
2172,7767.502
2173,7817.63
2174,7905.75
2175,7944.263
2176,7889.258
2177,7798.927
2178,7735.636
2179,7676.152
2180,7592.763
2181,7485.355
2182,7392.529
2183,7397.848
2184,7456.771
2185,7409.61
2186,7274.463
2187,7179.335
2188,7161.346
2189,7198.14
2190,7184.352
2191,7054.965
2192,6930.459
2193,6895.541
2194,6905.348
2195,6911.257
2196,6880.271
2197,6825.153
2198,6786.052
2199,6723.836
2200,6577.654
2201,6394.768
2202,6262.42
2203,6279.961
2204,6421.377
2205,6412.572
2206,6220.649
2207,6140.121
2208,6221.829
2209,6308.185
2210,6290.333
2211,6137.442
2212,6065.866
2213,6190.858
2214,6120.056
2215,5767.388
2216,5719.209
2217,5987.714
2218,5948.934
2219,5680.261
2220,5660.142
2221,5788.766
2222,5786.909
2223,5580.693
2224,5265.198
2225,5184.761
2226,5367.445
2227,5427.102
2228,5378.092
2229,5495.039
2230,5559.369
2231,5292.177
2232,5080.249
2233,5162.013
2234,5072.771
2235,4738.494
2236,4679.59
2237,4808.598
2238,4643.458
2239,4442.328
2240,4590.682
2241,4700.864
2242,4534.885
2243,4536.895
2244,4729.258
2245,4595.317
2246,4344.521
2247,4521.331
2248,4612.45
2249,4102.563
2250,3699.172
2251,3817.578
2252,3996.097
2253,4028.762
2254,4014.54
2255,3934.089
2256,3741.692
2257,3568.265
2258,3512.135
2259,3493.233
2260,3432.607
2261,3296.937
2262,3235.745
2263,3440.087
2264,3684.09
2265,3711.038
2266,3567.479
2267,3351.889
2268,3162.042
2269,3062.607
2270,3077.668
2271,3132.63
2272,3144.58
2273,3120.841
2274,3066.763
2275,2962.148
2276,2839.435
2277,2767.069
2278,2762.023
2279,2794.956
2280,2761.085
2281,2629.422
2282,2498.934
2283,2404.375
2284,2328.394
2285,2294.056
2286,2308.823
2287,2290.778
2288,2224.009
2289,2198.834
2290,2202.807
2291,2169.734
2292,2161.498
2293,2221.949
2294,2248.458
2295,2233.064
2296,2279.704
2297,2238.555
2298,1918.441
2299,1589.168
2300,1525.382
