400,13535.29
401,13494.34
402,13447.36
403,13412.91
404,13410.68
405,13451.6
406,13505.98
407,13532.52
408,13493.57
409,13403.68
410,13317.49
411,13290.13
412,13342.24
413,13427.94
414,13493.94
415,13498.81
416,13463.19
417,13428.19
418,13432.6
419,13477.72
420,13533.08
421,13567.42
422,13562.89
423,13529.59
424,13481.1
425,13430.39
426,13387.33
427,13360.63
428,13358.2
429,13373.77
430,13388.63
431,13383.8
432,13351.64
433,13308.74
434,13274.67
435,13264.76
436,13270.48
437,13274.99
438,13262.37
439,13231.61
440,13194.49
441,13163.11
442,13142.99
443,13126.37
444,13103.88
445,13068.85
446,13028.36
447,12993.95
448,12976.34
449,12974.8
450,12979.53
451,12980.57
452,12972.06
453,12955.55
454,12933.34
455,12907.84
456,12881.87
457,12858.36
458,12839.88
459,12824.65
460,12807.95
461,12785.07
462,12754.45
463,12719.35
464,12683.42
465,12650.42
466,12624.52
467,12609.96
468,12610.06
469,12619.51
470,12628.31
471,12626.6
472,12610.33
473,12582.44
474,12546.31
475,12505.62
476,12465.08
477,12429.51
478,12403.3
479,12387.93
480,12383.66
481,12390.42
482,12401.74
483,12405.31
484,12388.72
485,12348.89
486,12301.19
487,12263.1
488,12247.25
489,12244.23
490,12238.29
491,12215.11
492,12175.96
493,12132.17
494,12095.1
495,12071.94
496,12064.17
497,12072.89
498,12094.45
499,12111.1
500,12102.58
501,12053.5
502,11981.76
503,11919.26
504,11896.3
505,11915.11
506,11952.85
507,11986.01
508,11998.47
509,11987.69
510,11952.6
511,11894.81
512,11826.76
513,11763.57
514,11718.79
515,11691.74
516,11674
517,11657.29
518,11638.59
519,11620.64
520,11606.52
521,11597.44
522,11590.54
523,11582.39
524,11569.97
525,11552.04
526,11527.93
527,11497.14
528,11461.19
529,11422.88
530,11384.99
531,11350.06
532,11320.27
533,11297.76
534,11283.13
535,11273.13
536,11263.9
537,11252.26
538,11238.16
539,11222.6
540,11206.53
541,11189.94
542,11172.26
543,11152.9
544,11131.33
545,11107.14
546,11079.9
547,11050.92
548,11025.7
549,11010.36
550,11008.1
551,11007.56
552,10992.88
553,10950.56
554,10892.31
555,10845.34
556,10836
557,10862.01
558,10888.13
559,10877.6
560,10815.52
561,10734.33
562,10672.52
563,10658.49
564,10677.98
565,10705.38
566,10717.06
567,10705.96
568,10673.71
569,10622.43
570,10564.2
571,10520.64
572,10513.37
573,10545.14
574,10585.92
575,10602.57
576,10574.93
577,10525.13
578,10483.8
579,10475.76
580,10489.27
581,10498.26
582,10478.49
583,10429.29
584,10366.9
585,10307.74
586,10263.15
587,10238.18
588,10237.41
589,10259.1
590,10287.34
591,10304.29
592,10297.15
593,10273.96
594,10248.2
595,10231.29
596,10218.56
597,10197.58
598,10156.92
599,10102.81
600,10056.21
601,10038.12
602,10050.36
603,10067.2
604,10060.92
605,10018.21
606,9961.767
607,9919.8
608,9913.046
609,9928.761
610,9944.728
611,9941.059
612,9916.824
613,9880.618
614,9841.093
615,9807.425
616,9789.233
617,9795.805
618,9822.646
619,9845.823
620,9840.097
621,9795.146
622,9736.022
623,9692.811
624,9687.243
625,9706.8
626,9730.133
627,9738.614
628,9733.001
629,9722.709
630,9716.425
631,9712.537
632,9701.862
633,9675.343
634,9632.359
635,9582.323
636,9535.164
637,9498.451
638,9475.262
639,9468.143
640,9475.662
641,9483.658
642,9475.499
643,9439.32
644,9388.842
645,9346.341
646,9331.271
647,9337.169
648,9343.355
649,9330.124
650,9296.326
651,9256.88
652,9226.921
653,9210.995
654,9199.38
655,9181.436
656,9154.104
657,9130.366
658,9125.184
659,9145.282
660,9169.438
661,9170.578
662,9128.804
663,9063.607
664,9008.007
665,8990.964
666,9004.949
667,9022.668
668,9018.253
669,8990.928
670,8960.646
671,8947.406
672,8954.046
673,8962.1
674,8951.969
675,8915.967
676,8868.689
677,8827.107
678,8802.891
679,8792.562
680,8789.959
681,8789.598
682,8788.941
683,8786.294
684,8780.186
685,8770.734
686,8758.74
687,8744.75
688,8726.384
689,8699.397
690,8660
691,8613.937
692,8575.849
693,8560.344
694,8569.009
695,8585.86
696,8593.815
697,8583.2
698,8558.838
699,8527.202
700,8495.001
701,8469.65
702,8458.662
703,8466.169
704,8481.825
705,8491.429
706,8482.663
707,8455.027
708,8412.701
709,8360.505
710,8309.703
711,8275.204
712,8270.666
713,8290.208
714,8312.31
715,8315.686
716,8295.504
717,8265.242
718,8239.168
719,8225.229
720,8221.632
721,8225.753
722,8233.855
723,8239.799
724,8237.155
725,8222.398
726,8200.761
727,8179.109
728,8162.997
729,8152.41
730,8145.833
731,8141.345
732,8134.474
733,8119.792
734,8092.897
735,8058.226
736,8024.808
737,8000.946
738,7985.359
739,7970.031
740,7947.34
741,7919.93
742,7900.065
743,7899.876
744,7915.662
745,7924.053
746,7900.861
747,7842.946
748,7781.7
749,7751.49
750,7767.842
751,7805.33
752,7833.259
753,7830.996
754,7807.008
755,7774.997
756,7747.319
757,7731.266
758,7732.87
759,7754.486
760,7779.305
761,7784.315
762,7751.398
763,7696.392
764,7649.676
765,7637.956
766,7653.313
767,7668.596
768,7658.465
769,7622.85
770,7579.633
771,7546.429
772,7530.001
773,7527.367
774,7535.081
775,7545.962
776,7548.617
777,7531.681
778,7493.637
779,7446.855
780,7404.653
781,7376.665
782,7366.057
783,7375.297
784,7401.756
785,7431.538
786,7449.309
787,7445.628
788,7427.274
789,7403.785
790,7383.452
791,7370.371
792,7367.7
793,7375.737
794,7382.312
795,7371.902
796,7333.388
797,7279.395
798,7230.545
799,7204.156
800,7195.501
801,7190.698
802,7177.537
803,7157.916
804,7140.864
805,7134.594
806,7138.357
807,7145.961
808,7151.23
809,7148.916
810,7134.443
811,7103.733
812,7060.87
813,7016.928
814,6982.911
815,6964.097
816,6959.991
817,6969.702
818,6987.725
819,7003.11
820,7004.788
821,6988.018
822,6956.732
823,6915.528
824,6872.226
825,6839.818
826,6831.574
827,6848.132
828,6866.806
829,6862.568
830,6826.072
831,6781.39
832,6756.754
833,6766.07
834,6788.066
835,6796.256
836,6774.196
837,6733.756
838,6691.734
839,6661.551
840,6645.792
841,6644.827
842,6656.958
843,6672.744
844,6680.982
845,6673.371
846,6653.75
847,6629.162
848,6606.012
849,6587.801
850,6577.151
851,6575.547
852,6578.375
853,6578.99
854,6571.906
855,6558.544
856,6542.907
857,6528.74
858,6518.071
859,6512.207
860,6511.914
861,6513.874
862,6512.917
863,6504.49
864,6489.183
865,6470.142
866,6450.28
867,6430.223
868,6409.36
869,6387.302
870,6366.031
871,6348.921
872,6338.992
873,6335.226
874,6334.072
875,6331.941
876,6325.114
877,6309.79
878,6282.95
879,6251.909
880,6231.362
881,6234.966
882,6259.613
883,6289.525
884,6309.246
885,6312.439
886,6300.028
887,6273.569
888,6241.89
889,6219.884
890,6221.643
891,6244.278
892,6270.138
893,6281.809
894,6274.68
895,6255.697
896,6232.057
897,6208.163
898,6185.806
899,6166.665
900,6152.291
901,6144.112
902,6143.387
903,6147.781
904,6151.441
905,6148.612
906,6138.776
907,6126.657
908,6116.996
909,6110.012
910,6101.337
911,6086.616
912,6066.503
913,6046.775
914,6033.242
915,6027.257
916,6025.584
917,6024.795
918,6021.489
919,6012.298
920,5994.085
921,5969.064
922,5944.939
923,5929.308
924,5921.875
925,5914.311
926,5898.314
927,5874.015
928,5850.029
929,5834.996
930,5830.366
931,5830.496
932,5829.537
933,5823.387
934,5809.646
935,5786.316
936,5758.236
937,5736.693
938,5732.56
939,5744.286
940,5758.97
941,5763.832
942,5755.395
943,5738.412
944,5717.933
945,5699.576
946,5689.45
947,5692.928
948,5703.505
949,5705.021
950,5682.453
951,5641.59
952,5604.35
953,5591.384
954,5600.597
955,5613.154
956,5611.435
957,5597.738
958,5588.209
959,5597.583
960,5621.062
961,5641.096
962,5641.604
963,5624.269
964,5601.647
965,5585.249
966,5575.105
967,5564.709
968,5548.484
969,5529.726
970,5516.403
971,5515.104
972,5520.987
973,5523.66
974,5514.275
975,5495.407
976,5474.713
977,5459.319
978,5452.828
979,5457.403
980,5473.591
981,5492.381
982,5501.263
983,5490.842
984,5468.182
985,5445.784
986,5433.505
987,5428.801
988,5425.453
989,5418.049
990,5404.51
991,5383.643
992,5356.146
993,5329.792
994,5313.977
995,5314.051
996,5322.099
997,5327.505
998,5323.469
999,5314.162
1000,5305.705
1001,5301.63
1002,5298.933
1003,5293.605
1004,5283.527
1005,5270.759
1006,5257.913
1007,5246.842
1008,5235.926
1009,5222.545
1010,5205.498
1011,5189.262
1012,5179.722
1013,5180.298
1014,5185.911
1015,5189.655
1016,5186.629
1017,5177.851
1018,5165.432
1019,5152.476
1020,5144.608
1021,5147.81
1022,5162.856
1023,5179.228
1024,5185.018
1025,5175.044
1026,5156.52
1027,5137.931
1028,5124.86
1029,5118.359
1030,5119.002
1031,5124.122
1032,5126.766
1033,5119.997
1034,5105
1035,5091.988
1036,5091.094
1037,5101.787
1038,5113.617
1039,5116.382
1040,5108.765
1041,5096.318
1042,5084.528
1043,5076.258
1044,5072.701
1045,5074.638
1046,5079.483
1047,5082.911
1048,5081.423
1049,5077.173
1050,5074.669
1051,5077.189
1052,5081.499
1053,5082.225
1054,5075.813
1055,5066.189
1056,5059.201
1057,5058.228
1058,5058.807
1059,5054.932
1060,5044.532
1061,5035.259
1062,5036.158
1063,5048.673
1064,5059.636
1065,5054.482
1066,5031.167
1067,5006.354
1068,4997.732
1069,5008.629
1070,5025.672
1071,5035.071
1072,5032.592
1073,5022.603
1074,5010.01
1075,5002.761
1076,5010.902
1077,5042.432
1078,5086.824
1079,5123.841
1080,5137.72
1081,5141.546
1082,5159.681
1083,5207.976
1084,5263.348
1085,5291.615
1086,5273.089
1087,5235.738
1088,5217.216
1089,5236.174
1090,5266.137
1091,5274.35
1092,5247.779
1093,5207.527
1094,5177.576
1095,5163.925
1096,5149.792
1097,5117.921
1098,5070.703
1099,5028.744
1100,5011.495
1101,5016.061
1102,5024.502
1103,5020.857
1104,5007.055
1105,4993.613
1106,4989.206
1107,4992.36
1108,4998.208
1109,5002.75
1110,5005.135
1111,5005.227
1112,5003.247
1113,5000.299
1114,4997.613
1115,4995.934
1116,4995.181
1117,4995.198
1118,4996.015
1119,4997.882
1120,5000.783
1121,4999.989
1122,4986.875
1123,4954.458
1124,4912.997
1125,4882.541
1126,4878.876
1127,4890.899
1128,4897.292
1129,4882.538
1130,4854.117
1131,4825.169
1132,4803.885
1133,4785.828
1134,4764.651
1135,4739.553
1136,4719.045
1137,4712.223
1138,4719.666
1139,4732.429
1140,4741.489
1141,4743.806
1142,4740.79
1143,4734.023
1144,4725.606
1145,4717.896
1146,4712.442
1147,4706.843
1148,4697.488
1149,4683.485
1150,4672.157
1151,4672.305
1152,4686.311
1153,4704.425
1154,4715.724
1155,4714.685
1156,4702.314
1157,4680.236
1158,4653.576
1159,4630.162
1160,4616.557
1161,4608.479
1162,4596.384
1163,4574.568
1164,4555.583
1165,4557.324
1166,4587.051
1167,4622.492
1168,4636.55
1169,4620.615
1170,4597.136
1171,4590.665
1172,4604.386
1173,4619.307
1174,4617.112
1175,4599.078
1176,4578.993
1177,4568.398
1178,4563.746
1179,4555.743
1180,4537.945
1181,4513.849
1182,4489.101
1183,4468.457
1184,4454.882
1185,4451.026
1186,4456.292
1187,4466.21
1188,4476.198
1189,4483.185
1190,4485.176
1191,4480.903
1192,4473.869
1193,4469.542
1194,4470.785
1195,4470.889
1196,4461.012
1197,4439.33
1198,4418.265
1199,4411.581
1200,4421.136
1201,4434.873
1202,4440.676
1203,4435.553
1204,4422.682
1205,4405.807
1206,4391.429
1207,4387.089
1208,4396.08
1209,4408.009
1210,4409.87
1211,4398.926
1212,4390.383
1213,4400.457
1214,4427.631
1215,4452.989
1216,4458.815
1217,4445.595
1218,4423.757
1219,4403.096
1220,4389.929
1221,4389.561
1222,4403.368
1223,4423.349
1224,4440.19
1225,4446.847
1226,4439.188
1227,4414.111
1228,4379.492
1229,4350.934
1230,4341.306
1231,4346.1
1232,4354.365
1233,4358.49
1234,4360.789
1235,4365.337
1236,4372.148
1237,4375.039
1238,4367.957
1239,4355.624
1240,4351.539
1241,4366.425
1242,4389.964
1243,4402.922
1244,4393.269
1245,4372.841
1246,4358.271
1247,4357.575
1248,4364.6
1249,4372.157
1250,4378.032
1251,4384.255
1252,4392.582
1253,4401.806
1254,4409.442
1255,4413.3
1256,4412.178
1257,4405.107
1258,4392.958
1259,4379.542
1260,4368.826
1261,4362.986
1262,4362.746
1263,4368.54
1264,4379.206
1265,4392.937
1266,4406.723
1267,4414.046
1268,4407.931
1269,4390.269
1270,4375.374
1271,4376.872
1272,4387.46
1273,4385.308
1274,4355.382
1275,4319.935
1276,4313.36
1277,4350.019
1278,4397.32
1279,4417.011
1280,4401.639
1281,4378.13
1282,4372.154
1283,4381.16
1284,4387.483
1285,4379.052
1286,4365.747
1287,4362.581
1288,4375.17
1289,4393.106
1290,4404.941
1291,4407.886
1292,4406.126
1293,4403.28
1294,4398.402
1295,4388.879
1296,4375.336
1297,4366.522
1298,4372.047
1299,4389.839
1300,4404.539
1301,4402.321
1302,4389.516
1303,4382.979
1304,4393.609
1305,4410.884
1306,4419.673
1307,4412.611
1308,4394.148
1309,4370.025
1310,4349.649
1311,4344.969
1312,4363.436
1313,4390.996
1314,4407.341
1315,4404.009
1316,4395.495
1317,4397.881
1318,4408.417
1319,4408.226
1320,4383.773
1321,4356.386
1322,4360.15
1323,4408.448
1324,4466.127
1325,4492.462
1326,4479.849
1327,4453.936
1328,4439.302
1329,4442.44
1330,4462.104
1331,4493.722
1332,4523.934
1333,4538.351
1334,4535.422
1335,4527.892
1336,4527.407
1337,4530.953
1338,4528.636
1339,4515.365
1340,4500.037
1341,4493.727
1342,4496.878
1343,4497.481
1344,4485.246
1345,4469.714
1346,4470.052
1347,4495.105
1348,4523.341
1349,4528.425
1350,4507.4
1351,4484.498
1352,4482.202
1353,4496.82
1354,4512.292
1355,4517.595
1356,4516.002
1357,4513.182
1358,4512.757
1359,4516.11
1360,4524.016
1361,4533.736
1362,4541.003
1363,4542.84
1364,4539.519
1365,4531.842
1366,4521.355
1367,4510.314
1368,4501.531
1369,4500.927
1370,4515.562
1371,4545.846
1372,4578.083
1373,4597.587
1374,4603.551
1375,4606.561
1376,4614.961
1377,4624.48
1378,4627.115
1379,4622.216
1380,4621.667
1381,4636.794
1382,4657.538
1383,4659.873
1384,4630.308
1385,4594.95
1386,4588.299
1387,4615.937
1388,4645.725
1389,4647.363
1390,4626.883
1391,4608.007
1392,4604.843
1393,4605.95
1394,4596.449
1395,4576.51
1396,4560.58
1397,4559.847
1398,4564.575
1399,4558.078
1400,4536.762
1401,4520.528
1402,4529.282
1403,4553.536
1404,4564.619
1405,4545.291
1406,4519.194
1407,4518.052
1408,4547.399
1409,4581.803
1410,4597.355
1411,4593.146
1412,4577.842
1413,4560.337
1414,4549.907
1415,4554.931
1416,4570.002
1417,4579.457
1418,4573.222
1419,4563.941
1420,4569.315
1421,4589.493
1422,4602.389
1423,4589.552
1424,4568.885
1425,4573.977
1426,4616.152
1427,4659.015
1428,4663.172
1429,4633.864
1430,4608.757
1431,4613.75
1432,4628.904
1433,4624.652
1434,4598.201
1435,4577.92
1436,4588.078
1437,4616.116
1438,4635.445
1439,4631.299
1440,4610.71
1441,4583.464
1442,4563.599
1443,4567.748
1444,4602.138
1445,4642.727
1446,4661.152
1447,4652.964
1448,4635.728
1449,4624.766
1450,4621.23
1451,4622.284
1452,4626.738
1453,4635.631
1454,4649.112
1455,4659.874
1456,4657.441
1457,4640.07
1458,4623.229
1459,4622.573
1460,4632.938
1461,4636.176
1462,4623.789
1463,4615.283
1464,4633.653
1465,4674.695
1466,4710.612
1467,4720.017
1468,4710.942
1469,4698.653
1470,4690.813
1471,4686.163
1472,4683.727
1473,4687.051
1474,4701.145
1475,4722.522
1476,4734.52
1477,4722.908
1478,4701.742
1479,4698.287
1480,4722.253
1481,4747.661
1482,4746.768
1483,4719.972
1484,4684.712
1485,4655.173
1486,4636.392
1487,4631.561
1488,4638.004
1489,4648.604
1490,4657.337
1491,4662.159
1492,4662.006
1493,4659.309
1494,4659.718
1495,4666.975
1496,4676.647
1497,4682.433
1498,4683.101
1499,4682.94
1500,4684.857
1501,4683.689
1502,4672.166
1503,4655.07
1504,4652.343
1505,4678.519
1506,4712.013
1507,4719.122
1508,4693.444
1509,4667.496
1510,4670.92
1511,4695.26
1512,4717.192
1513,4724.34
1514,4721.648
1515,4715.5
1516,4711.58
1517,4715.201
1518,4725.655
1519,4732.004
1520,4724.996
1521,4716.17
1522,4726.543
1523,4761.208
1524,4796.653
1525,4809.119
1526,4797.436
1527,4771.327
1528,4742.391
1529,4725.482
1530,4733.305
1531,4757.661
1532,4780.184
1533,4790.872
1534,4795.324
1535,4800.577
1536,4811.531
1537,4831.995
1538,4859.041
1539,4877.622
1540,4874.06
1541,4855.545
1542,4838.944
1543,4832.782
1544,4831.112
1545,4827.905
1546,4827.007
1547,4836.52
1548,4858.011
1549,4882.547
1550,4901.271
1551,4912.231
1552,4916.235
1553,4913.133
1554,4901.372
1555,4881.597
1556,4867.819
1557,4878.323
1558,4909.758
1559,4930.724
1560,4916.851
1561,4888.6
1562,4879.614
1563,4900.097
1564,4933.855
1565,4963.665
1566,4974.157
1567,4951.82
1568,4913.378
1569,4904.449
1570,4949.953
1571,4999.833
1572,4992.276
1573,4934.793
1574,4889.771
1575,4898.323
1576,4938.988
1577,4981.307
1578,5013.984
1579,5037.93
1580,5052.712
1581,5054.613
1582,5041.869
1583,5032.755
1584,5055.264
1585,5111.51
1586,5160.605
1587,5165.02
1588,5133.414
1589,5091.729
1590,5057.333
1591,5036.754
1592,5033.704
1593,5042.439
1594,5054.678
1595,5064.113
1596,5066.277
1597,5062.67
1598,5073.074
1599,5117.662
1600,5176.242
1601,5201.263
1602,5173.993
1603,5139.337
1604,5143.496
1605,5175.455
1606,5197.207
1607,5189.729
1608,5162.762
1609,5130.075
1610,5113.68
1611,5136.885
1612,5188.624
1613,5222.546
1614,5210.775
1615,5191.757
1616,5213.009
1617,5262.756
1618,5288.682
1619,5267.824
1620,5240.395
1621,5247.142
1622,5274.162
1623,5283.993
1624,5263.533
1625,5232.343
1626,5208.612
1627,5194.632
1628,5188.195
1629,5182.814
1630,5168.403
1631,5142.322
1632,5120.995
1633,5121.253
1634,5137.229
1635,5151.513
1636,5154.538
1637,5148.657
1638,5136.559
1639,5117.842
1640,5091.654
1641,5065.695
1642,5055.27
1643,5067.238
1644,5085.817
1645,5093.914
1646,5094.994
1647,5102.891
1648,5122.132
1649,5143.626
1650,5156.619
1651,5147.947
1652,5106.176
1653,5059.378
1654,5067.626
1655,5148.725
1656,5222.012
1657,5208.771
1658,5144.395
1659,5112.528
1660,5137.445
1661,5171.2
1662,5177.53
1663,5176.193
1664,5195.305
1665,5218.645
1666,5202.107
1667,5144.615
1668,5119.923
1669,5185.487
1670,5277.694
1671,5299.78
1672,5252.311
1673,5220.983
1674,5251.958
1675,5291.615
1676,5282.4
1677,5240.668
1678,5213.171
1679,5208.803
1680,5193.399
1681,5154.029
1682,5149.835
1683,5241.005
1684,5368.256
1685,5409.298
1686,5334.15
1687,5242.528
1688,5214.4
1689,5217.53
1690,5198.496
1691,5167.524
1692,5175.545
1693,5236.047
1694,5300.319
1695,5325.735
1696,5322.618
1697,5314.937
1698,5312.473
1699,5314.641
1700,5318.125
1701,5315.13
1702,5300.2
1703,5281.683
1704,5271.739
1705,5276.067
1706,5295.25
1707,5321.567
1708,5331.786
1709,5309.144
1710,5278.711
1711,5276.606
1712,5304.196
1713,5335.396
1714,5352.645
1715,5356.075
1716,5348.907
1717,5339.85
1718,5338.907
1719,5349.69
1720,5370.888
1721,5395.326
1722,5405.599
1723,5390.257
1724,5369.928
1725,5372.041
1726,5393.625
1727,5410.7
1728,5409.325
1729,5392.389
1730,5366.968
1731,5350.566
1732,5360.692
1733,5387.147
1734,5403.403
1735,5398.73
1736,5384.277
1737,5373.081
1738,5379.076
1739,5411.894
1740,5444.011
1741,5431.279
1742,5376.55
1743,5334.568
1744,5339.775
1745,5369.099
1746,5394.754
1747,5414.375
1748,5434.862
1749,5458.037
1750,5481.374
1751,5498.37
1752,5495.471
1753,5464.193
1754,5421.334
1755,5388.883
1756,5370.536
1757,5359.111
1758,5362.35
1759,5407.799
1760,5497.993
1761,5559.184
1762,5521.123
1763,5432.956
1764,5390.011
1765,5413.332
1766,5457.372
1767,5487.5
1768,5494.172
1769,5477.038
1770,5462.771
1771,5480.352
1772,5510.211
1773,5506.163
1774,5466.078
1775,5440.308
1776,5455.025
1777,5469.085
1778,5443.791
1779,5410.386
1780,5419.499
1781,5460.759
1782,5480.99
1783,5464.903
1784,5452.725
1785,5472.61
1786,5504.184
1787,5523.144
1788,5537.995
1789,5568.218
1790,5599.518
1791,5590.89
1792,5532.869
1793,5466.914
1794,5427.475
1795,5411.763
1796,5411.13
1797,5427.843
1798,5467.884
1799,5522.574
1800,5571.157
1801,5597.015
1802,5590.724
1803,5552.447
1804,5510.479
1805,5492.813
1806,5488.68
1807,5474.146
1808,5462.091
1809,5493.129
1810,5565.094
1811,5612.839
1812,5597.721
1813,5568.801
1814,5577.946
1815,5607.317
1816,5617.691
1817,5604.839
1818,5587.419
1819,5574.383
1820,5562.433
1821,5548.237
1822,5530.038
1823,5509.177
1824,5499.467
1825,5515.999
1826,5555.421
1827,5604.504
1828,5642.134
1829,5640.4
1830,5601.659
1831,5578.488
1832,5602.537
1833,5627.904
1834,5605.138
1835,5548.965
1836,5496.394
1837,5476.745
1838,5512.888
1839,5583.745
1840,5619.594
1841,5593.82
1842,5568.799
1843,5593.376
1844,5632.547
1845,5641.799
1846,5634.922
1847,5645.981
1848,5669.514
1849,5673.337
1850,5650.116
1851,5622.282
1852,5608.551
1853,5616.817
1854,5645.814
1855,5666.91
1856,5652.93
1857,5623.249
1858,5612.456
1859,5623.104
1860,5637.137
1861,5642.754
1862,5635.361
1863,5622.391
1864,5631.657
1865,5673.267
1866,5699.321
1867,5670.568
1868,5645.383
1869,5698.685
1870,5777.244
1871,5767.199
1872,5672.755
1873,5597.06
1874,5590.082
1875,5626.36
1876,5672.735
1877,5690.984
1878,5657.911
1879,5605.589
1880,5572.729
1881,5565.653
1882,5578.885
1883,5605.817
1884,5639.396
1885,5676.582
1886,5717.588
1887,5748.131
1888,5734.133
1889,5671.302
1890,5621.208
1891,5629.415
1892,5660.079
1893,5667.07
1894,5640.031
1895,5583.566
1896,5529.454
1897,5520.703
1898,5558.601
1899,5612.176
1900,5650.634
1901,5644.813
1902,5599.668
1903,5577.526
1904,5610.879
1905,5642.779
1906,5624.031
1907,5589.15
1908,5582.522
1909,5587.635
1910,5570.698
1911,5543.963
1912,5541.877
1913,5557.955
1914,5554.905
1915,5530.34
1916,5521.193
1917,5547.32
1918,5598.399
1919,5656.301
1920,5691.375
1921,5681.891
1922,5637.253
1923,5575.333
1924,5523.982
1925,5511.215
1926,5544.865
1927,5619.213
1928,5676.727
1929,5636.103
1930,5533.501
1931,5497.866
1932,5554.157
1933,5609.139
1934,5609.938
1935,5574.265
1936,5535.854
1937,5549.167
1938,5630.415
1939,5680.726
1940,5621.413
1941,5531.437
1942,5506.397
1943,5524.043
1944,5529.393
1945,5517.789
1946,5506.807
1947,5508.654
1948,5531.344
1949,5568.67
1950,5603.371
1951,5619.799
1952,5604.741
1953,5564.283
1954,5529.395
1955,5515.669
1956,5510.005
1957,5501.936
1958,5492.664
1959,5482.501
1960,5465.035
1961,5441.872
1962,5447.8
1963,5504.81
1964,5539.454
1965,5475.793
1966,5392.758
1967,5406.211
1968,5465.643
1969,5455.449
1970,5398.629
1971,5391.636
1972,5420.414
1973,5396
1974,5331.743
1975,5328.655
1976,5389.126
1977,5409.131
1978,5356.188
1979,5295.968
1980,5271.965
1981,5283.332
1982,5314.393
1983,5329.214
1984,5318.077
1985,5333.931
1986,5399.893
1987,5438.29
1988,5392.737
1989,5325.808
1990,5300.695
1991,5295.123
1992,5279.714
1993,5282.268
1994,5333.218
1995,5393.884
1996,5413.374
1997,5404.354
1998,5398.226
1999,5388.012
2000,5354.71
2001,5319.104
2002,5316.879
2003,5334.447
2004,5333.661
2005,5315.465
2006,5304.815
2007,5312.328
2008,5336.177
2009,5343.991
2010,5283.933
2011,5185.661
2012,5146.721
2013,5186.892
2014,5250.042
2015,5296.272
2016,5306.668
2017,5288.082
2018,5274.348
2019,5263.131
2020,5207.466
2021,5112.597
2022,5054.771
2023,5063.947
2024,5098.634
2025,5126.104
2026,5134.815
2027,5122.396
2028,5098.246
2029,5072.035
2030,5052.122
2031,5044.303
2032,5050.046
2033,5063.508
2034,5066.591
2035,5052.242
2036,5036.307
2037,5028.479
2038,5021.963
2039,5017.823
2040,5035.845
2041,5060.949
2042,5005.047
2043,4862.99
2044,4813.139
2045,4929.687
2046,5031.792
2047,5004.342
2048,4927.772
2049,4877.707
2050,4872.282
2051,4901.298
2052,4912.057
2053,4875.537
2054,4818.961
2055,4780.675
2056,4807.128
2057,4886.44
2058,4897.7
2059,4796.487
2060,4696.268
2061,4670.778
2062,4696.685
2063,4739.807
2064,4764.393
2065,4762.464
2066,4769.162
2067,4785.411
2068,4757.149
2069,4687.401
2070,4662.965
2071,4692.824
2072,4678.715
2073,4604.891
2074,4562.664
2075,4584.868
2076,4631.439
2077,4668.22
2078,4671.998
2079,4635.96
2080,4570.399
2081,4520.579
2082,4553.731
2083,4616.291
2084,4572.645
2085,4468.206
2086,4461.872
2087,4524.547
2088,4520.957
2089,4459.912
2090,4422.524
2091,4406.255
2092,4376.173
2093,4366.748
2094,4424.578
2095,4484.345
2096,4459.917
2097,4378.419
2098,4298.283
2099,4252.889
2100,4255.292
2101,4268.127
2102,4254.897
2103,4219.479
2104,4179.594
2105,4168.4
2106,4189.518
2107,4175.859
2108,4117.417
2109,4126.757
2110,4229.702
2111,4297.833
2112,4267.056
2113,4175.004
2114,4078.218
2115,4042.7
2116,4065.583
2117,4085.205
2118,4086.276
2119,4085.471
2120,4060.593
2121,3980.639
2122,3935.688
2123,4035.553
2124,4145.086
2125,4089.735
2126,3964.626
2127,3905.179
2128,3889.602
2129,3863.47
2130,3785.513
2131,3675.786
2132,3685.951
2133,3840.849
2134,3913.72
2135,3831.805
2136,3764.576
2137,3760.733
2138,3727.121
2139,3677.882
2140,3708.62
2141,3758.855
2142,3692.805
2143,3589.003
2144,3597.224
2145,3668.927
2146,3698.673
2147,3647.083
2148,3523.402
2149,3432.784
2150,3438.161
2151,3464.926
2152,3452.638
2153,3396.947
2154,3322.742
2155,3281.899
2156,3275.357
2157,3260.93
2158,3257.93
2159,3316.228
2160,3389.343
2161,3403.64
2162,3396.579
2163,3407.679
2164,3338.222
2165,3149.225
2166,3045.213
2167,3133.999
2168,3271.578
2169,3326.474
2170,3227.143
2171,3060.727
2172,3035.37
2173,3093.341
2174,3040.095
2175,2977.557
2176,3072.804
2177,3154.306
2178,3059.295
2179,2981.225
2180,3055.135
2181,3141.063
2182,3132.736
2183,3026.758
2184,2893.165
2185,2852.776
2186,2859.056
2187,2778.452
2188,2671.441
2189,2655.043
2190,2705.963
2191,2770.072
2192,2820.668
2193,2829.691
2194,2758.882
2195,2617.941
2196,2475.856
2197,2385.811
2198,2378.196
2199,2420.316
2200,2457.258
2201,2490.645
2202,2533.25
2203,2573.358
2204,2578.959
2205,2489.799
2206,2328.16
2207,2219.571
2208,2201.944
2209,2238.913
2210,2310.837
2211,2393.146
2212,2390.497
2213,2270.401
2214,2242.898
2215,2354.285
2216,2301.449
2217,2115.119
2218,2181.216
2219,2354.675
2220,2217.356
2221,1960.716
2222,1908.64
2223,1964.77
2224,2001.26
2225,2029.556
2226,2087.292
2227,2211.234
2228,2268.456
2229,2057.754
2230,1834.318
2231,1912.451
2232,2010.569
2233,1888.775
2234,1739.407
2235,1707.835
2236,1793.475
2237,1886.273
2238,1835.686
2239,1751.463
2240,1776.517
2241,1742.099
2242,1595.746
2243,1669.316
2244,1914.27
2245,1826.079
2246,1508.452
2247,1412.955
2248,1506.696
2249,1614.753
2250,1689.755
2251,1728.445
2252,1757.223
2253,1744.092
2254,1618.613
2255,1476.181
2256,1458.612
2257,1532.856
2258,1605.485
2259,1558.854
2260,1414.814
2261,1351.851
2262,1381.439
2263,1406.266
2264,1363.982
2265,1262.088
2266,1259.803
2267,1374.848
2268,1402.274
2269,1313.611
2270,1217.24
2271,1165.835
2272,1173.842
2273,1209.833
2274,1256.052
2275,1322.445
2276,1319.356
2277,1128.532
2278,979.9633
2279,1090.365
2280,1200.039
2281,1132.943
2282,980.8819
2283,856.6591
2284,846.4938
2285,876.882
2286,862.8845
2287,862.0774
2288,886.226
2289,854.1965
2290,766.3971
2291,688.0729
2292,699.3434
2293,822.8058
2294,931.6805
2295,951.2424
2296,899.4734
2297,844.8342
2298,843.047
2299,786.3177
2300,643.0748
