400,28677.9
401,28614.63
402,28597.51
403,28604
404,28608.05
405,28590.43
406,28563.21
407,28547.51
408,28562.79
409,28605.53
410,28654.49
411,28688.13
412,28691.96
413,28665.01
414,28607.86
415,28523.95
416,28432.12
417,28356.25
418,28318.88
419,28321.86
420,28349.38
421,28385.23
422,28416.59
423,28437.78
424,28444.04
425,28432.41
426,28410.24
427,28388.46
428,28377.21
429,28372.42
430,28357.54
431,28315.76
432,28241.37
433,28152.27
434,28069.35
435,28010.49
436,27977.24
437,27965.41
438,27970.37
439,27979.76
440,27974.53
441,27935.67
442,27859.61
443,27774.29
444,27711.28
445,27693.33
446,27697.41
447,27685.69
448,27623.46
449,27521.93
450,27428.43
451,27390.69
452,27423.67
453,27482.92
454,27517.88
455,27488.99
456,27405.45
457,27290.21
458,27166.19
459,27057.92
460,26990.89
461,26989.98
462,27048.71
463,27112.65
464,27123.58
465,27043.81
466,26909.88
467,26775.04
468,26687.46
469,26649.05
470,26636.4
471,26626.24
472,26606.1
473,26576.62
474,26539.21
475,26495.43
476,26447.33
477,26397.01
478,26346.81
479,26300.68
480,26263.25
481,26238.7
482,26222.98
483,26204.5
484,26171.54
485,26120.26
486,26062.54
487,26012.04
488,25979.46
489,25962.08
490,25953.36
491,25946.6
492,25932.96
493,25902.29
494,25844.72
495,25762.17
496,25672.72
497,25595.46
498,25542.27
499,25503.65
500,25466.24
501,25418.74
502,25364.04
503,25311.01
504,25268.29
505,25240.53
506,25228.82
507,25234.08
508,25250.2
509,25258.2
510,25237.77
511,25176.29
512,25091.73
513,25009.72
514,24952.65
515,24913.79
516,24870.5
517,24800.85
518,24704.42
519,24604.54
520,24525.64
521,24479.8
522,24451.47
523,24421.37
524,24374.46
525,24315.92
526,24257.11
527,24208.39
528,24169.51
529,24133.56
530,24093.74
531,24049.47
532,24007.97
533,23976.88
534,23959.51
535,23948.56
536,23935.14
537,23910.78
538,23869.15
539,23804.68
540,23713.36
541,23609.81
542,23520.88
543,23472.77
544,23465.77
545,23467.62
546,23444.17
547,23377.98
548,23292.27
549,23216.28
550,23172.96
551,23154.27
552,23142.5
553,23121.44
554,23090.78
555,23059.96
556,23038.19
557,23024.72
558,23007.27
559,22973.02
560,22917.27
561,22852.77
562,22794.5
563,22753.48
564,22723.84
565,22695.22
566,22658.22
567,22611.48
568,22557.82
569,22500.18
570,22443.76
571,22395.9
572,22363.9
573,22346.74
574,22329.03
575,22294.01
576,22233.28
577,22165.75
578,22115.79
579,22102.65
580,22113.32
581,22122.14
582,22105.31
583,22062.32
584,22009.4
585,21962.73
586,21925.64
587,21885.24
588,21827.7
589,21750.25
590,21675.2
591,21628.11
592,21625
593,21641.8
594,21643.99
595,21601.62
596,21520.01
597,21421.55
598,21328.16
599,21254.01
600,21206.8
601,21193.68
602,21208.07
603,21223.63
604,21212.6
605,21160.28
606,21084.6
607,21008.44
608,20950.58
609,20911.39
610,20886.03
611,20869.86
612,20859.96
613,20854.24
614,20850.6
615,20846.02
616,20836.73
617,20818.96
618,20789.01
619,20743.28
620,20678.2
621,20595.5
622,20509.49
623,20436.25
624,20388.83
625,20367.88
626,20370.86
627,20393.82
628,20422.28
629,20437.11
630,20420.52
631,20372.28
632,20305.15
633,20232.11
634,20165.63
635,20117.57
636,20099.6
637,20109.87
638,20120.52
639,20100.86
640,20033.81
641,19945.53
642,19870.64
643,19836.28
644,19829.41
645,19823.55
646,19795.1
647,19746.8
648,19695.87
649,19658.76
650,19636.89
651,19618.68
652,19592.29
653,19551.62
654,19498.28
655,19434.43
656,19366.41
657,19309.39
658,19279.61
659,19284.1
660,19298.67
661,19292.6
662,19242.57
663,19165.98
664,19094.2
665,19055.2
666,19046.72
667,19050.1
668,19047.29
669,19031.69
670,19006.23
671,18974.08
672,18938.5
673,18902.87
674,18870.54
675,18840.1
676,18801.25
677,18742.8
678,18660.09
679,18567.3
680,18481.9
681,18418.21
682,18376.74
683,18354.13
684,18346.56
685,18346.91
686,18346.62
687,18337.64
688,18317.03
689,18285.18
690,18242.72
691,18194.6
692,18149.79
693,18117.21
694,18098.96
695,18087.92
696,18076.39
697,18058.43
698,18031.51
699,17993.54
700,17945.24
701,17895.48
702,17854.56
703,17829.27
704,17811.44
705,17788.93
706,17751.64
707,17702.53
708,17649.7
709,17601.22
710,17565.01
711,17548.86
712,17559.54
713,17587.53
714,17610.31
715,17605.72
716,17568.69
717,17513.26
718,17454.31
719,17404.21
720,17371.38
721,17363.81
722,17378.18
723,17386.77
724,17358.82
725,17280.23
726,17187.34
727,17125.86
728,17127.88
729,17167.18
730,17201.96
731,17196.3
732,17149.54
733,17074.32
734,16983.86
735,16896.52
736,16833.31
737,16812.91
738,16823.68
739,16832.77
740,16808.51
741,16750.28
742,16686.5
743,16645.89
744,16632.48
745,16619.6
746,16579.16
747,16506.25
748,16434.03
749,16398.94
750,16417.28
751,16461.49
752,16498.37
753,16504.24
754,16482.89
755,16443.05
756,16393.23
757,16341.13
758,16294.2
759,16258.38
760,16231.67
761,16209.51
762,16187.77
763,16165.53
764,16143.19
765,16120.8
766,16094.84
767,16059.83
768,16011.1
769,15955.06
770,15905.91
771,15877.32
772,15869.9
773,15872.6
774,15874.08
775,15865.11
776,15838.9
777,15789.01
778,15719.97
779,15651.77
780,15605.32
781,15589.6
782,15592.54
783,15600.01
784,15601.57
785,15594.91
786,15578.81
787,15553.12
788,15520.74
789,15485.04
790,15449.06
791,15414.72
792,15383.7
793,15356.96
794,15332.6
795,15307.86
796,15280.41
797,15249.97
798,15216.95
799,15181.89
800,15146.12
801,15111.34
802,15079.03
803,15049.1
804,15020.7
805,14992.77
806,14962.46
807,14925.78
808,14879.48
809,14829.73
810,14789.56
811,14771.06
812,14767.63
813,14756.67
814,14716.29
815,14650.6
816,14589.88
817,14564.63
818,14579.61
819,14609.27
820,14626.69
821,14617.25
822,14583.17
823,14527.94
824,14458.87
825,14389.43
826,14333.52
827,14300
828,14288.52
829,14297.69
830,14319.58
831,14332.24
832,14312.07
833,14250.42
834,14175.49
835,14120.88
836,14106.66
837,14114.72
838,14120.27
839,14105.46
840,14074.63
841,14036.61
842,13998.39
843,13960.08
844,13920.17
845,13878.35
846,13839.18
847,13808.54
848,13790.44
849,13780.22
850,13770.67
851,13755.96
852,13737.91
853,13720.88
854,13708.36
855,13698.46
856,13687.34
857,13671.68
858,13651.84
859,13629.69
860,13606.7
861,13581.31
862,13550.59
863,13511.99
864,13466.33
865,13416.11
866,13364.15
867,13316.59
868,13281.3
869,13265.15
870,13264.46
871,13269.38
872,13270.61
873,13265.22
874,13254.34
875,13238.97
876,13217.82
877,13188.09
878,13147.81
879,13106.56
880,13082.16
881,13090.84
882,13123.98
883,13154.17
884,13155.45
885,13130.66
886,13105.52
887,13104.63
888,13123.96
889,13135.58
890,13112.68
891,13059.57
892,13007.64
893,12987.41
894,12996.45
895,13002.65
896,12974.62
897,12914.75
898,12856.99
899,12834.83
900,12849.6
901,12871.79
902,12871.79
903,12843.61
904,12804.47
905,12771.99
906,12752.65
907,12741.75
908,12734.13
909,12724.32
910,12706.55
911,12675.45
912,12634.38
913,12595.72
914,12571.76
915,12563.72
916,12561.47
917,12554.54
918,12536.35
919,12504.34
920,12456.37
921,12397.07
922,12337.91
923,12290.35
924,12258.76
925,12240.26
926,12231.58
927,12226.85
928,12217.66
929,12195.88
930,12161.97
931,12124.93
932,12093.72
933,12069.8
934,12047.37
935,12020.75
936,11992.33
937,11972.14
938,11969.77
939,11981.1
940,11989.46
941,11978.54
942,11946.65
943,11904.98
944,11864.88
945,11832.96
946,11811.89
947,11803.9
948,11806.97
949,11815.63
950,11824.33
951,11828.02
952,11822.03
953,11802.31
954,11773.48
955,11746.51
956,11731.65
957,11728.28
958,11728.28
959,11723.71
960,11710.8
961,11688.44
962,11656.54
963,11625.39
964,11611.63
965,11629.08
966,11663.38
967,11684.16
968,11664.81
969,11613.57
970,11557.04
971,11519.2
972,11502.22
973,11497.57
974,11496.31
975,11486.42
976,11454.59
977,11391.72
978,11316.81
979,11260.21
980,11246.69
981,11268.09
982,11304.18
983,11336.34
984,11354.48
985,11351.37
986,11322.98
987,11280.57
988,11239.86
989,11213.33
990,11199.81
991,11194.55
992,11193.29
993,11193.58
994,11193.39
995,11188.88
996,11170.34
997,11126.83
998,11058.03
999,10994.1
1000,10970.58
1001,11002.03
1002,11050.01
1003,11068.06
1004,11031.92
1005,10966.48
1006,10903.19
1007,10866.75
1008,10851.13
1009,10841.5
1010,10826.95
1011,10812.33
1012,10806.42
1013,10814.36
1014,10828.62
1015,10838.99
1016,10837.71
1017,10824.21
1018,10799.28
1019,10766.16
1020,10734.35
1021,10714.3
1022,10711.85
1023,10722.93
1024,10742.15
1025,10762.9
1026,10776.33
1027,10773.43
1028,10751.42
1029,10717.21
1030,10678.49
1031,10641.76
1032,10611.92
1033,10593.62
1034,10587.37
1035,10589.05
1036,10594.38
1037,10599.38
1038,10600.44
1039,10594.11
1040,10579.81
1041,10559.12
1042,10534.22
1043,10513.63
1044,10509.9
1045,10532.82
1046,10567.91
1047,10588.15
1048,10571.34
1049,10528.56
1050,10484.74
1051,10460.84
1052,10457.02
1053,10466.54
1054,10482.12
1055,10494.33
1056,10493.16
1057,10474.18
1058,10450.74
1059,10439.65
1060,10450.14
1061,10472.66
1062,10494.85
1063,10506.17
1064,10499.52
1065,10468.46
1066,10418.4
1067,10372.55
1068,10354.89
1069,10369.22
1070,10395.96
1071,10415.02
1072,10421.17
1073,10422.53
1074,10427.42
1075,10440.25
1076,10462.72
1077,10496.16
1078,10538.74
1079,10587.04
1080,10637.8
1081,10688.93
1082,10738.8
1083,10784.47
1084,10816.91
1085,10825.37
1086,10805.28
1087,10772.37
1088,10746.52
1089,10738.42
1090,10737
1091,10728.08
1092,10702.44
1093,10659.4
1094,10599.35
1095,10530.98
1096,10473.5
1097,10445.85
1098,10448.09
1099,10462.78
1100,10472.43
1101,10466.37
1102,10438.54
1103,10385.4
1104,10322.77
1105,10275.79
1106,10263.6
1107,10273.04
1108,10280.18
1109,10268.21
1110,10246.33
1111,10229.61
1112,10228.35
1113,10241.02
1114,10264.22
1115,10291.98
1116,10313.86
1117,10319.29
1118,10307.59
1119,10289.77
1120,10276.95
1121,10269.93
1122,10261.02
1123,10242.82
1124,10212.93
1125,10171.83
1126,10120.62
1127,10064.06
1128,10008.27
1129,9959.628
1130,9925.382
1131,9912.996
1132,9922.004
1133,9931.695
1134,9918.427
1135,9876.283
1136,9829.101
1137,9802.759
1138,9800.734
1139,9801.446
1140,9783.498
1141,9746.693
1142,9706.623
1143,9678.118
1144,9666.826
1145,9673.944
1146,9697.229
1147,9717.707
1148,9711.287
1149,9667.538
1150,9617.254
1151,9598.733
1152,9625.353
1153,9663.425
1154,9674.875
1155,9648.667
1156,9606.414
1157,9570.691
1158,9549.312
1159,9538.679
1160,9535.149
1161,9537.079
1162,9543.798
1163,9552.82
1164,9553.097
1165,9531.076
1166,9483.8
1167,9437.708
1168,9424.003
1169,9452.034
1170,9494.436
1171,9521.178
1172,9522.902
1173,9511.723
1174,9499.705
1175,9487.08
1176,9466.504
1177,9432.59
1178,9392.738
1179,9359.225
1180,9341.104
1181,9336.207
1182,9339.922
1183,9346.271
1184,9346.553
1185,9332.026
1186,9303.467
1187,9272.968
1188,9252.837
1189,9249.388
1190,9264.666
1191,9297.755
1192,9328.415
1193,9328.411
1194,9280.867
1195,9210.482
1196,9151.38
1197,9125.751
1198,9131.581
1199,9163.565
1200,9205.169
1201,9226.74
1202,9201.253
1203,9143.557
1204,9096.827
1205,9097.112
1206,9133.54
1207,9177.497
1208,9204.778
1209,9205.464
1210,9172.67
1211,9113.978
1212,9062.221
1213,9051.237
1214,9080.467
1215,9115.598
1216,9124.859
1217,9113.741
1218,9108.094
1219,9126.492
1220,9152.761
1221,9160.702
1222,9138.645
1223,9109.587
1224,9101.007
1225,9117.939
1226,9136.559
1227,9133.031
1228,9108.458
1229,9081.485
1230,9068.197
1231,9067.099
1232,9070.186
1233,9071.847
1234,9073.604
1235,9078.225
1236,9084.247
1237,9083.757
1238,9069.094
1239,9045.622
1240,9029.318
1241,9033.575
1242,9051.638
1243,9068.227
1244,9072.293
1245,9066.893
1246,9057.96
1247,9049.928
1248,9044.761
1249,9044.067
1250,9047.003
1251,9050.642
1252,9052.347
1253,9051.995
1254,9050.557
1255,9048.498
1256,9044.634
1257,9037.459
1258,9026.526
1259,9013.08
1260,8998.869
1261,8991.21
1262,9001.931
1263,9038.689
1264,9081.312
1265,9098.542
1266,9074.028
1267,9035.129
1268,9016.625
1269,9027.935
1270,9042.914
1271,9035.29
1272,9011.56
1273,9000.972
1274,9024.389
1275,9056.181
1276,9055.591
1277,9006.617
1278,8951.279
1279,8938.464
1280,8974.976
1281,9020.68
1282,9037.344
1283,9027.102
1284,9013.706
1285,9014.877
1286,9024.451
1287,9030.674
1288,9031.232
1289,9039.897
1290,9070.285
1291,9107.975
1292,9115.948
1293,9067.102
1294,8997.225
1295,8965.187
1296,9000.759
1297,9060.691
1298,9091.689
1299,9078.078
1300,9046.939
1301,9025.185
1302,9017.275
1303,9015.973
1304,9014.97
1305,9011.667
1306,9004.369
1307,8996.336
1308,8998.371
1309,9020.565
1310,9055.627
1311,9084.279
1312,9092.184
1313,9089.538
1314,9093.682
1315,9110.357
1316,9122.836
1317,9113.093
1318,9086.2
1319,9067.011
1320,9075.688
1321,9100.552
1322,9118.267
1323,9117.811
1324,9117.038
1325,9137.002
1326,9176.511
1327,9212.03
1328,9222.841
1329,9215.093
1330,9206.453
1331,9209.109
1332,9220.413
1333,9235.384
1334,9252.539
1335,9274.294
1336,9301.889
1337,9325.799
1338,9331.445
1339,9312.432
1340,9286.079
1341,9273.518
1342,9280.825
1343,9296.47
1344,9309.036
1345,9316.298
1346,9320.481
1347,9322.895
1348,9322.075
1349,9316.293
1350,9311.099
1351,9320.511
1352,9354.615
1353,9388.732
1354,9381.731
1355,9315.723
1356,9237.884
1357,9205.009
1358,9226.547
1359,9260.182
1360,9267.897
1361,9261.752
1362,9275.495
1363,9325.115
1364,9381.893
1365,9411.32
1366,9404.316
1367,9376.545
1368,9345.126
1369,9329.555
1370,9350.146
1371,9409.403
1372,9472.062
1373,9500.277
1374,9494.707
1375,9487.594
1376,9505.078
1377,9538.84
1378,9570.175
1379,9586.186
1380,9583.91
1381,9562.36
1382,9532.543
1383,9513.304
1384,9518.797
1385,9545.364
1386,9585.013
1387,9620.229
1388,9621.113
1389,9563.368
1390,9475.744
1391,9412.852
1392,9407.469
1393,9434.591
1394,9460.646
1395,9469.532
1396,9461.732
1397,9439.838
1398,9414.34
1399,9398.314
1400,9394.384
1401,9386.434
1402,9358.488
1403,9319.705
1404,9295.657
1405,9304.177
1406,9335.169
1407,9372.518
1408,9401.83
1409,9410.75
1410,9390.479
1411,9355.773
1412,9331.178
1413,9330.229
1414,9343.019
1415,9357.489
1416,9374.021
1417,9402.217
1418,9446.148
1419,9487.556
1420,9503.291
1421,9491.633
1422,9477.975
1423,9484.644
1424,9499.285
1425,9494.584
1426,9461.813
1427,9432.105
1428,9438.846
1429,9474.582
1430,9502.205
1431,9494.52
1432,9463.206
1433,9428.708
1434,9407.314
1435,9410.458
1436,9445.392
1437,9494.888
1438,9532.421
1439,9543.686
1440,9536.91
1441,9522.305
1442,9505.351
1443,9488.646
1444,9476.253
1445,9476.554
1446,9497.774
1447,9529.432
1448,9543.799
1449,9522.086
1450,9489.437
1451,9482.896
1452,9510.877
1453,9542.95
1454,9550.932
1455,9542.704
1456,9541.647
1457,9559.103
1458,9582.529
1459,9597.891
1460,9605.936
1461,9616.627
1462,9635.747
1463,9656.768
1464,9671.302
1465,9676.947
1466,9676.495
1467,9672.999
1468,9669.853
1469,9670.397
1470,9673.327
1471,9671.893
1472,9661.74
1473,9653.99
1474,9665.04
1475,9698.886
1476,9740.255
1477,9773.462
1478,9792.97
1479,9797.998
1480,9787.193
1481,9757.981
1482,9709.367
1483,9658.738
1484,9634.628
1485,9650.547
1486,9680.619
1487,9694.207
1488,9684.324
1489,9661.845
1490,9639.537
1491,9634.743
1492,9664.287
1493,9715.132
1494,9746.809
1495,9730.954
1496,9692.248
1497,9667.911
1498,9672.612
1499,9696.478
1500,9727.921
1501,9753.266
1502,9758.562
1503,9744.702
1504,9731.269
1505,9734.707
1506,9746.797
1507,9750.92
1508,9742.119
1509,9732.07
1510,9731.557
1511,9737.282
1512,9740.465
1513,9736.918
1514,9729.727
1515,9723.533
1516,9729.399
1517,9760.979
1518,9814.354
1519,9855.778
1520,9854.983
1521,9831.468
1522,9827.518
1523,9859.159
1524,9895.129
1525,9903.84
1526,9891.399
1527,9881.933
1528,9884.471
1529,9880.028
1530,9851.273
1531,9819.437
1532,9824.37
1533,9874.133
1534,9917.909
1535,9907.602
1536,9869.746
1537,9866.676
1538,9919.451
1539,9974.212
1540,9977.686
1541,9943.489
1542,9916.298
1543,9919.938
1544,9941.977
1545,9967.147
1546,9985.848
1547,9991.126
1548,9988.478
1549,10003.28
1550,10056.28
1551,10125.45
1552,10171.86
1553,10176.12
1554,10147.51
1555,10097.56
1556,10037.65
1557,9979.202
1558,9935.974
1559,9924.693
1560,9956.922
1561,10017.28
1562,10081.82
1563,10122.54
1564,10106.95
1565,10024.54
1566,9957.899
1567,10008.36
1568,10152.96
1569,10249.99
1570,10207.82
1571,10123.2
1572,10125.29
1573,10214.82
1574,10290.92
1575,10290.34
1576,10260.74
1577,10263.52
1578,10300.55
1579,10335.75
1580,10348.85
1581,10354.89
1582,10371.31
1583,10396.86
1584,10420.92
1585,10432.48
1586,10420
1587,10378.24
1588,10341
1589,10355.64
1590,10422.4
1591,10482.21
1592,10487.9
1593,10462.28
1594,10446.3
1595,10455.52
1596,10481.71
1597,10514.2
1598,10537.7
1599,10538.02
1600,10526.84
1601,10533.32
1602,10570.35
1603,10614.66
1604,10641.06
1605,10647.23
1606,10641.79
1607,10632.23
1608,10624.25
1609,10623.71
1610,10637.67
1611,10673.15
1612,10725.14
1613,10776.27
1614,10812.13
1615,10830.12
1616,10830.92
1617,10826.55
1618,10836.75
1619,10864.62
1620,10878.18
1621,10847.23
1622,10787.33
1623,10733.87
1624,10705.75
1625,10699.66
1626,10706.82
1627,10701.64
1628,10656.14
1629,10580.09
1630,10515.06
1631,10492.81
1632,10517.61
1633,10585.56
1634,10658.67
1635,10682.12
1636,10645.51
1637,10605.23
1638,10609.9
1639,10644.63
1640,10676.2
1641,10680.68
1642,10642.5
1643,10567.67
1644,10517.5
1645,10549.96
1646,10615.87
1647,10612.82
1648,10531.65
1649,10499.17
1650,10608.27
1651,10754.15
1652,10786.37
1653,10703.84
1654,10626.86
1655,10628.09
1656,10663.28
1657,10679.13
1658,10674.85
1659,10672.08
1660,10675.99
1661,10671.63
1662,10654.33
1663,10659.24
1664,10723.62
1665,10808.06
1666,10824.81
1667,10753.12
1668,10689
1669,10715.75
1670,10792.04
1671,10839.85
1672,10832.14
1673,10786.54
1674,10729.7
1675,10705.54
1676,10750.51
1677,10829.96
1678,10879.99
1679,10874.75
1680,10831.68
1681,10778.4
1682,10766.04
1683,10839.69
1684,10944.77
1685,10974.31
1686,10907.88
1687,10846.44
1688,10865.25
1689,10907.21
1690,10892.23
1691,10839.64
1692,10832.43
1693,10898.95
1694,10976.6
1695,11008.2
1696,10998.55
1697,10969.9
1698,10948.66
1699,10963.97
1700,11010.1
1701,11018.16
1702,10939.98
1703,10861.53
1704,10899.94
1705,11020.9
1706,11072.51
1707,10992.41
1708,10894.92
1709,10887.22
1710,10938.45
1711,10977.22
1712,10980.9
1713,10965.48
1714,10950.78
1715,10961.78
1716,11015.29
1717,11084.68
1718,11131.67
1719,11145.17
1720,11134.82
1721,11112.2
1722,11091.35
1723,11084.34
1724,11092.9
1725,11114.54
1726,11130.04
1727,11108.96
1728,11052.19
1729,11011.18
1730,11021.79
1731,11040.29
1732,11012.14
1733,10976.71
1734,11027.67
1735,11161.57
1736,11241.49
1737,11181.82
1738,11093.39
1739,11106.45
1740,11183.99
1741,11210.18
1742,11165.4
1743,11136.59
1744,11175.74
1745,11233.84
1746,11256.89
1747,11255.79
1748,11264.05
1749,11283.57
1750,11289.61
1751,11275.13
1752,11267.35
1753,11282.16
1754,11270.33
1755,11176.26
1756,11067.64
1757,11084.98
1758,11240.38
1759,11375.52
1760,11382.38
1761,11333.33
1762,11318.36
1763,11324.71
1764,11299.57
1765,11246.56
1766,11219.6
1767,11242.84
1768,11280.9
1769,11302.29
1770,11319.51
1771,11351.94
1772,11372.17
1773,11328.21
1774,11243.98
1775,11233.4
1776,11341.52
1777,11430.21
1778,11375.25
1779,11282.54
1780,11321.25
1781,11452.08
1782,11489.38
1783,11376.12
1784,11243.65
1785,11199.95
1786,11239.93
1787,11333.35
1788,11421.77
1789,11439.79
1790,11393.39
1791,11345.63
1792,11334.13
1793,11353.76
1794,11395.82
1795,11452.24
1796,11511
1797,11532.16
1798,11469.74
1799,11373.67
1800,11371.64
1801,11484.49
1802,11560.18
1803,11497.64
1804,11404.81
1805,11405.58
1806,11457.67
1807,11458.24
1808,11400.78
1809,11353.1
1810,11357.08
1811,11414.23
1812,11502.85
1813,11545.97
1814,11481.56
1815,11386.08
1816,11374.32
1817,11439.96
1818,11498.16
1819,11520.19
1820,11546.85
1821,11591.68
1822,11598.04
1823,11528.27
1824,11468.44
1825,11519.1
1826,11615.2
1827,11613.08
1828,11500.4
1829,11386.42
1830,11349.62
1831,11410.02
1832,11549.9
1833,11654.11
1834,11618.98
1835,11513.76
1836,11460.51
1837,11475.69
1838,11508.82
1839,11535.79
1840,11563.26
1841,11593.6
1842,11617.8
1843,11627.77
1844,11623.27
1845,11606.94
1846,11588.84
1847,11582.03
1848,11599.67
1849,11653.88
1850,11721.6
1851,11738.8
1852,11680.29
1853,11602.76
1854,11558.57
1855,11550.95
1856,11573.22
1857,11623.08
1858,11696.72
1859,11752.79
1860,11728.53
1861,11640.08
1862,11587.47
1863,11608.91
1864,11627.18
1865,11588.72
1866,11543.8
1867,11545.02
1868,11560.33
1869,11539
1870,11501.95
1871,11504.49
1872,11544.05
1873,11569.79
1874,11568.97
1875,11581.73
1876,11625.72
1877,11662.63
1878,11662.51
1879,11650.11
1880,11656.11
1881,11675.51
1882,11691.53
1883,11698.94
1884,11698.91
1885,11688.85
1886,11662.89
1887,11622.83
1888,11581.13
1889,11551.79
1890,11550.45
1891,11585.85
1892,11643.22
1893,11704.48
1894,11760.26
1895,11801.04
1896,11791.46
1897,11690.24
1898,11566.5
1899,11569.53
1900,11697.6
1901,11775.49
1902,11727.08
1903,11659.62
1904,11655.94
1905,11692.37
1906,11729.13
1907,11728.66
1908,11665.29
1909,11581
1910,11537.08
1911,11543.41
1912,11581.17
1913,11617.45
1914,11610.48
1915,11573.39
1916,11579.47
1917,11640.35
1918,11665.94
1919,11611.87
1920,11556.83
1921,11564.28
1922,11593.04
1923,11592.85
1924,11571.61
1925,11554.61
1926,11567.47
1927,11628.27
1928,11674.33
1929,11604.04
1930,11468.31
1931,11437.95
1932,11530.32
1933,11589.53
1934,11551.02
1935,11501.9
1936,11498.46
1937,11507.66
1938,11501.38
1939,11496.39
1940,11505.42
1941,11494.86
1942,11438.74
1943,11412.74
1944,11503.11
1945,11619.76
1946,11609.27
1947,11493.69
1948,11395.41
1949,11358.6
1950,11365.03
1951,11395.13
1952,11429.72
1953,11450.41
1954,11440.24
1955,11408.04
1956,11405.55
1957,11455.47
1958,11508.61
1959,11512.98
1960,11435.46
1961,11279.6
1962,11170.15
1963,11216.08
1964,11322.7
1965,11358.71
1966,11333.3
1967,11304.46
1968,11299.76
1969,11327.61
1970,11347.08
1971,11296.06
1972,11218.61
1973,11227.83
1974,11292.27
1975,11258.13
1976,11132.15
1977,11092.77
1978,11175.3
1979,11222.05
1980,11166.93
1981,11104.26
1982,11092.26
1983,11097.13
1984,11090.35
1985,11077.13
1986,11074.5
1987,11118.7
1988,11214.5
1989,11257.81
1990,11171.37
1991,11058.89
1992,11031.76
1993,11046.69
1994,11038.86
1995,11055.19
1996,11151.31
1997,11213.81
1998,11100.26
1999,10921.41
2000,10872.37
2001,10926.43
2002,10957.45
2003,10952.71
2004,10960.47
2005,10988.29
2006,11016.5
2007,11014
2008,10945.76
2009,10838.44
2010,10765.54
2011,10764.05
2012,10834.03
2013,10890.34
2014,10776.53
2015,10556.9
2016,10520.28
2017,10699.04
2018,10828.77
2019,10828.1
2020,10855.52
2021,10941.53
2022,10932.08
2023,10779.91
2024,10604.59
2025,10504.03
2026,10524.05
2027,10634.51
2028,10693.62
2029,10641.7
2030,10570.84
2031,10544.01
2032,10549.17
2033,10569.7
2034,10594.15
2035,10605.17
2036,10573.84
2037,10495.65
2038,10415.17
2039,10357.16
2040,10296.98
2041,10237.24
2042,10245.62
2043,10327.58
2044,10348.51
2045,10261.93
2046,10232.94
2047,10324.02
2048,10339.07
2049,10191.82
2050,10079.21
2051,10121.59
2052,10219.39
2053,10278.41
2054,10266.28
2055,10187.83
2056,10105.09
2057,10050.39
2058,9989.283
2059,9912.651
2060,9869.509
2061,9884.881
2062,9931.844
2063,9972.473
2064,9960.033
2065,9894.065
2066,9846.881
2067,9838.644
2068,9804.224
2069,9742.949
2070,9751.042
2071,9825.954
2072,9830.409
2073,9746.932
2074,9710.24
2075,9726.167
2076,9652.374
2077,9525.163
2078,9561.617
2079,9707.009
2080,9659.222
2081,9464.257
2082,9455.227
2083,9599.166
2084,9591.799
2085,9452.56
2086,9413.547
2087,9455.112
2088,9413.018
2089,9300.05
2090,9223.257
2091,9231.164
2092,9321.82
2093,9344.575
2094,9142.522
2095,8917.963
2096,8936.79
2097,9084.898
2098,9166.144
2099,9170.395
2100,9141.842
2101,9135.095
2102,9171.069
2103,9156.494
2104,9036.995
2105,8921.072
2106,8891.29
2107,8912.807
2108,8930.263
2109,8880.293
2110,8741.036
2111,8557.494
2112,8406.362
2113,8392.183
2114,8467.773
2115,8430.461
2116,8278.674
2117,8188.189
2118,8200.057
2119,8253.502
2120,8309.025
2121,8346.087
2122,8383.255
2123,8443.493
2124,8459.365
2125,8366.773
2126,8287.927
2127,8336.308
2128,8378.98
2129,8291.83
2130,8146.074
2131,8022.479
2132,7943.013
2133,7906.719
2134,7886.558
2135,7860.708
2136,7819.075
2137,7773.734
2138,7756.652
2139,7750.09
2140,7701.969
2141,7650.159
2142,7672.298
2143,7695.084
2144,7606.792
2145,7503.701
2146,7512.818
2147,7568.711
2148,7588.114
2149,7591.585
2150,7587.123
2151,7509.569
2152,7332.122
2153,7109.762
2154,6931.969
2155,6914.763
2156,7047.547
2157,7203.651
2158,7273.434
2159,7179.135
2160,6986.567
2161,6821.415
2162,6754.701
2163,6803.126
2164,6848.235
2165,6798.992
2166,6721.905
2167,6667.938
2168,6612.569
2169,6558.375
2170,6550.763
2171,6570.827
2172,6545.576
2173,6499.441
2174,6506.49
2175,6526.705
2176,6480.726
2177,6350.44
2178,6168.496
2179,6069.553
2180,6119.018
2181,6191.487
2182,6166.426
2183,5974.125
2184,5730.287
2185,5702.184
2186,5823.826
2187,5837.041
2188,5742.363
2189,5641.679
2190,5566.45
2191,5520.676
2192,5487.49
2193,5457.9
2194,5444.361
2195,5448.85
2196,5459.78
2197,5500.474
2198,5601.118
2199,5596.065
2200,5309.023
2201,5053.828
2202,5126.991
2203,5247.45
2204,5181.485
2205,5023.275
2206,4926.208
2207,5051.617
2208,5276.609
2209,5289.626
2210,5136.333
2211,5007.984
2212,4905.223
2213,4792.082
2214,4696.727
2215,4635.036
2216,4581.292
2217,4509.794
2218,4407.087
2219,4352.984
2220,4458.604
2221,4635.504
2222,4732.109
2223,4661.286
2224,4451.366
2225,4339.296
2226,4385.041
2227,4400.298
2228,4343.574
2229,4279.496
2230,4136.6
2231,3870.631
2232,3798.573
2233,4065.528
2234,4230.766
2235,4117.448
2236,3987.815
2237,3953.523
2238,3982.22
2239,3999.381
2240,3932.33
2241,3781.202
2242,3632.392
2243,3704.151
2244,3870.914
2245,3640.859
2246,3245.88
2247,3283.787
2248,3528.725
2249,3587.854
2250,3512.633
2251,3428.518
2252,3430.441
2253,3413.251
2254,3150.375
2255,2970.188
2256,3261.189
2257,3419.629
2258,3076.811
2259,2962.824
2260,3243.639
2261,3289.143
2262,3122.421
2263,3131.695
2264,3201.394
2265,3136.57
2266,2997.559
2267,2829.919
2268,2607.766
2269,2441.953
2270,2500.022
2271,2631.363
2272,2643.316
2273,2592.312
2274,2495.788
2275,2260.082
2276,2104.584
2277,2376.506
2278,2567.52
2279,2214.324
2280,2059.499
2281,2401.287
2282,2550.052
2283,2418.36
2284,2376.199
2285,2312.303
2286,2082.621
2287,1990.702
2288,2135.425
2289,2234.026
2290,2194.793
2291,2080.994
2292,1962.618
2293,1896.774
2294,1903.064
2295,1907.621
2296,1764.645
2297,1643.4
2298,1772.947
2299,1856.095
2300,1713.722
