400,20657.16
401,20671.66
402,20708.88
403,20751.46
404,20780.76
405,20782.73
406,20764.22
407,20738.09
408,20716.56
409,20703.1
410,20694.39
411,20687.01
412,20677.89
413,20664.78
414,20645.49
415,20619.08
416,20591.06
417,20569.1
418,20560.4
419,20565.45
420,20578.97
421,20595.54
422,20610.39
423,20620.18
424,20621.67
425,20612.52
426,20594.91
427,20572.63
428,20549.32
429,20526.12
430,20501.92
431,20475.57
432,20445.92
433,20411.81
434,20372.09
435,20327.42
436,20288.61
437,20269.98
438,20284.34
439,20318.66
440,20337.76
441,20306.07
442,20213.97
443,20104.42
444,20026.56
445,20016.36
446,20041.75
447,20048.62
448,19987.11
449,19869.16
450,19755.3
451,19706.7
452,19744.33
453,19816.38
454,19863.55
455,19840.77
456,19766.31
457,19676.22
458,19604.43
459,19560.22
460,19536.16
461,19524.51
462,19516.76
463,19503.21
464,19474.09
465,19424.24
466,19365.21
467,19312.29
468,19278.83
469,19260.57
470,19243.54
471,19214.12
472,19170.4
473,19124.79
474,19090.43
475,19075
476,19070.97
477,19068.28
478,19057.78
479,19036.57
480,19004.31
481,18960.92
482,18911.73
483,18867.02
484,18837.12
485,18824.48
486,18815.96
487,18796.63
488,18755.63
489,18700.69
490,18644.85
491,18600.3
492,18569.9
493,18550.5
494,18538.83
495,18531.06
496,18522.51
497,18508.47
498,18487.41
499,18467.09
500,18456.98
501,18463.87
502,18476.21
503,18474.73
504,18441.36
505,18379.6
506,18312.15
507,18262.12
508,18239.94
509,18232.66
510,18224.86
511,18203.48
512,18164.66
513,18106.88
514,18029.86
515,17945.13
516,17870.65
517,17823.83
518,17808.3
519,17812.37
520,17823.64
521,17829.39
522,17816.12
523,17770.27
524,17685.24
525,17588.03
526,17515.79
527,17501.32
528,17530.02
529,17557.44
530,17539.86
531,17469.38
532,17382.55
533,17318.41
534,17297.79
535,17296.4
536,17283.2
537,17234.31
538,17162.95
539,17094.39
540,17051.81
541,17034.75
542,17027.21
543,17013.3
544,16989
545,16965.09
546,16953.24
547,16956.04
548,16953.82
549,16923.66
550,16850.34
551,16756.82
552,16677.97
553,16645.21
554,16654.47
555,16679.75
556,16695.35
557,16689.3
558,16665.44
559,16628.47
560,16582.85
561,16532.54
562,16481.41
563,16433.37
564,16392.67
565,16363.57
566,16349.5
567,16346.19
568,16345.46
569,16339.24
570,16322.31
571,16292.14
572,16246.44
573,16188.59
574,16131.96
575,16090.82
576,16072.92
577,16064.77
578,16048.61
579,16010.01
580,15955.54
581,15899.99
582,15857.37
583,15831.79
584,15820.29
585,15819.66
586,15823.73
587,15822.58
588,15806.1
589,15770.69
590,15727.43
591,15689.34
592,15665.04
593,15644.77
594,15614
595,15561.17
596,15498.36
597,15449.03
598,15435.13
599,15453.65
600,15480.53
601,15491.41
602,15472.43
603,15424.84
604,15351.09
605,15259.67
606,15174.35
607,15121.18
608,15117.43
609,15140.99
610,15158.59
611,15141.75
612,15101.17
613,15067.25
614,15068.52
615,15101.61
616,15136.01
617,15140.98
618,15107.58
619,15057.53
620,15014.75
621,14991.03
622,14969.52
623,14929.25
624,14857.23
625,14773.31
626,14705.78
627,14678.63
628,14685.07
629,14704.58
630,14717.61
631,14717.38
632,14706.62
633,14688.14
634,14661.77
635,14623.79
636,14570.33
637,14505.33
638,14447.76
639,14418.16
640,14427.48
641,14456.13
642,14478.5
643,14473.57
644,14444.66
645,14403.29
646,14360.51
647,14323.24
648,14296.15
649,14283.3
650,14278.55
651,14266.92
652,14233.54
653,14176.2
654,14109.86
655,14050.55
656,14008.35
657,13980.77
658,13963.74
659,13953.6
660,13948.1
661,13945.29
662,13942.88
663,13936.54
664,13921.26
665,13893.02
666,13857.04
667,13823.48
668,13801.79
669,13789.6
670,13774.76
671,13745.14
672,13699.24
673,13648.66
674,13605.73
675,13576.95
676,13557.96
677,13543.21
678,13528.67
679,13514.63
680,13502.17
681,13490.5
682,13470.52
683,13430.86
684,13363.35
685,13282.34
686,13211.81
687,13173.8
688,13169.04
689,13184.56
690,13207.35
691,13226.51
692,13233.11
693,13218.58
694,13183.58
695,13141.25
696,13105.52
697,13083.11
698,13066.72
699,13047.42
700,13020.13
701,12990.69
702,12966.88
703,12953.42
704,12942.01
705,12920.84
706,12881.03
707,12832.25
708,12791.46
709,12773.94
710,12778.48
711,12794.55
712,12811.53
713,12818.89
714,12806.17
715,12763.58
716,12698.64
717,12638.17
718,12609.49
719,12617.68
720,12633.37
721,12624.52
722,12576.98
723,12515.06
724,12467.94
725,12454.02
726,12459.1
727,12462.89
728,12449.62
729,12422.81
730,12391.18
731,12362.52
732,12339.28
733,12321.87
734,12310.26
735,12300.16
736,12285.13
737,12259.15
738,12221.95
739,12177.26
740,12128.92
741,12081.79
742,12041.69
743,12014.31
744,12001.52
745,12000.45
746,12007.88
747,12017.45
748,12017.59
749,11996.37
750,11953.39
751,11913.28
752,11903.88
753,11937.14
754,11978.81
755,11986.44
756,11931.92
757,11842.72
758,11759.8
759,11716.85
760,11710.26
761,11724.28
762,11743.26
763,11752.06
764,11735.78
765,11682.35
766,11606.31
767,11536.88
768,11501.18
769,11497.04
770,11501.52
771,11492.47
772,11468.71
773,11447.97
774,11447.87
775,11466.93
776,11482.07
777,11469.57
778,11424.17
779,11366.68
780,11319.68
781,11295.7
782,11289.59
783,11294.42
784,11303.35
785,11309.75
786,11307.03
787,11291.61
788,11268.13
789,11242.65
790,11219.7
791,11198.64
792,11177.68
793,11156.25
794,11139
795,11131.99
796,11138.58
797,11147.63
798,11143.13
799,11112.29
800,11064.17
801,11016.85
802,10986.04
803,10967.49
804,10946.85
805,10911.49
806,10867.38
807,10831.76
808,10820.61
809,10830.9
810,10845.87
811,10849.06
812,10833.24
813,10799.11
814,10747.96
815,10689.3
816,10640.87
817,10620.14
818,10626.71
819,10639.05
820,10634.92
821,10607.89
822,10573.23
823,10547.54
824,10535.48
825,10522.65
826,10493.13
827,10444.35
828,10398.27
829,10379.37
830,10396.38
831,10424.46
832,10434.64
833,10411.4
834,10372.38
835,10340.09
836,10327.14
837,10318.03
838,10292.39
839,10239.33
840,10178.62
841,10136.2
842,10129.2
843,10142.29
844,10152.63
845,10142.46
846,10115.18
847,10079.75
848,10044.9
849,10018.25
850,10007.1
851,10015.67
852,10031.76
853,10037.7
854,10019.5
855,9985.261
856,9951.298
857,9931.072
858,9918.806
859,9900.76
860,9866.008
861,9824.714
862,9796.646
863,9797.971
864,9814.694
865,9817.824
866,9782.461
867,9721.918
868,9670.201
869,9657.957
870,9680.623
871,9713.01
872,9731.196
873,9727.326
874,9703.667
875,9663.08
876,9613.819
877,9567.764
878,9536.261
879,9523.332
880,9527.739
881,9547.48
882,9570.762
883,9578.413
884,9552.858
885,9503.487
886,9461.16
887,9455.201
888,9480.611
889,9503.767
890,9492.244
891,9448.965
892,9407.603
893,9401.012
894,9428.781
895,9460.492
896,9466.042
897,9441.713
898,9408.381
899,9387.038
900,9382.59
901,9384.517
902,9382
903,9370.776
904,9352.992
905,9331.038
906,9306.745
907,9281.382
908,9256.242
909,9233.823
910,9217.858
911,9211.931
912,9215.154
913,9222.059
914,9227.019
915,9225.277
916,9212.95
917,9186.497
918,9149.055
919,9110.671
920,9081.312
921,9062.388
922,9046.516
923,9026.203
924,9000.172
925,8973.475
926,8951.258
927,8934.541
928,8920.205
929,8904.991
930,8886.335
931,8862.366
932,8831.544
933,8798.754
934,8775.113
935,8771.244
936,8783.149
937,8793.033
938,8783.397
939,8751.93
940,8710.214
941,8670.08
942,8639.12
943,8621.183
944,8619.523
945,8629.563
946,8640.069
947,8640.214
948,8628.647
949,8611.741
950,8595.873
951,8584.467
952,8578.653
953,8579.143
954,8581.677
955,8578.342
956,8562.109
957,8538.147
958,8520.107
959,8520.289
960,8533.438
961,8542.836
962,8533.289
963,8507.792
964,8480.457
965,8464.12
966,8457.799
967,8452.646
968,8440.56
969,8420.755
970,8396.308
971,8370.106
972,8343.295
973,8316.161
974,8289.702
975,8270.134
976,8265.984
977,8283.203
978,8310.673
979,8330.376
980,8327.576
981,8306.92
982,8280.169
983,8257.067
984,8236.706
985,8214.646
986,8188.395
987,8164.671
988,8152.915
989,8159.958
990,8181.748
991,8211.378
992,8240.548
993,8255.716
994,8242.149
995,8193.623
996,8131.799
997,8084.003
998,8066.946
999,8066.793
1000,8064.279
1001,8047.682
1002,8024.319
1003,8004.448
1004,7995.226
1005,7996.976
1006,8009.104
1007,8028.984
1008,8044.605
1009,8041.281
1010,8010.077
1011,7965.031
1012,7925.889
1013,7906.828
1014,7902.859
1015,7904.866
1016,7906.159
1017,7907.232
1018,7909.901
1019,7913.53
1020,7911.249
1021,7895.261
1022,7864.638
1023,7833.33
1024,7817.11
1025,7821.555
1026,7833.464
1027,7837.79
1028,7829.296
1029,7818.069
1030,7815.239
1031,7821.387
1032,7823.148
1033,7806.774
1034,7773.985
1035,7743.667
1036,7734.641
1037,7747.077
1038,7763.814
1039,7767.893
1040,7754.742
1041,7729.351
1042,7697.231
1043,7667.227
1044,7650.281
1045,7655.406
1046,7674.528
1047,7690.752
1048,7689.624
1049,7673.623
1050,7652.268
1051,7634.375
1052,7625.019
1053,7628.025
1054,7644.687
1055,7665.847
1056,7679.683
1057,7677.649
1058,7661.634
1059,7635.6
1060,7604.636
1061,7576.655
1062,7559.94
1063,7558.982
1064,7570.99
1065,7592.318
1066,7617.462
1067,7638.136
1068,7646.127
1069,7641.919
1070,7636.111
1071,7639.272
1072,7650.856
1073,7660.305
1074,7657.885
1075,7648.831
1076,7648.729
1077,7671.06
1078,7708.861
1079,7744.45
1080,7763.564
1081,7774.167
1082,7792.909
1083,7831.213
1084,7876.581
1085,7909.69
1086,7917.383
1087,7906.731
1088,7888.954
1089,7873.635
1090,7866.5
1091,7872.597
1092,7887.629
1093,7891.142
1094,7861.732
1095,7801.504
1096,7742.359
1097,7716.424
1098,7722.551
1099,7728.731
1100,7704.635
1101,7654.442
1102,7605.549
1103,7582.251
1104,7580.815
1105,7584.041
1106,7577.699
1107,7563.836
1108,7549.951
1109,7542.042
1110,7540.675
1111,7545.173
1112,7554.393
1113,7566.013
1114,7577.532
1115,7585.881
1116,7587.016
1117,7577.011
1118,7558.754
1119,7543.234
1120,7541.1
1121,7549.626
1122,7555.028
1123,7544.365
1124,7516.209
1125,7475.671
1126,7428.306
1127,7381.972
1128,7345.404
1129,7324.329
1130,7312.604
1131,7301.168
1132,7283.338
1133,7258.501
1134,7227.048
1135,7193.106
1136,7167.076
1137,7159.584
1138,7170.819
1139,7189.297
1140,7203.132
1141,7203.289
1142,7182.866
1143,7137.687
1144,7085.312
1145,7053.849
1146,7063.679
1147,7096.918
1148,7123.962
1149,7124.695
1150,7107.618
1151,7086.566
1152,7071.321
1153,7064.009
1154,7065.731
1155,7071.582
1156,7069.413
1157,7047.632
1158,7009.438
1159,6969.464
1160,6941.251
1161,6927.121
1162,6923.936
1163,6928.218
1164,6935.041
1165,6939.057
1166,6937.067
1167,6931.835
1168,6927.125
1169,6925.262
1170,6926.145
1171,6929.32
1172,6931.491
1173,6926.398
1174,6908.676
1175,6884.803
1176,6868.816
1177,6871.848
1178,6886.371
1179,6897.752
1180,6895.523
1181,6883.739
1182,6869.587
1183,6857.79
1184,6848.141
1185,6839.904
1186,6834.346
1187,6835.119
1188,6845.186
1189,6856.483
1190,6853.095
1191,6822.354
1192,6774.683
1193,6730.043
1194,6704.718
1195,6701.434
1196,6719.779
1197,6753.247
1198,6782.943
1199,6789.027
1200,6768.784
1201,6739.504
1202,6718.501
1203,6709.173
1204,6705.517
1205,6702.028
1206,6697.379
1207,6691.819
1208,6685.198
1209,6676.059
1210,6662.736
1211,6647.826
1212,6641.37
1213,6653.58
1214,6681.825
1215,6710.866
1216,6726.384
1217,6727.716
1218,6721.662
1219,6714.415
1220,6709.009
1221,6707.558
1222,6709.995
1223,6711.06
1224,6704.899
1225,6692.19
1226,6682.012
1227,6683.046
1228,6691.566
1229,6695.099
1230,6683.703
1231,6663.716
1232,6647.501
1233,6642.931
1234,6644.527
1235,6644.44
1236,6639.577
1237,6634.126
1238,6632.573
1239,6634.201
1240,6634.048
1241,6627.991
1242,6618.555
1243,6611.082
1244,6609.474
1245,6612.848
1246,6619.336
1247,6627.106
1248,6634.379
1249,6639.393
1250,6640.519
1251,6636.256
1252,6626.157
1253,6617.269
1254,6619.887
1255,6638.1
1256,6655.563
1257,6651.991
1258,6623.95
1259,6594.909
1260,6589.205
1261,6605.966
1262,6623.924
1263,6624.505
1264,6610.455
1265,6593.002
1266,6582.085
1267,6583.771
1268,6603.23
1269,6636.297
1270,6665.726
1271,6674.433
1272,6660.268
1273,6631.446
1274,6597.005
1275,6569.194
1276,6561.291
1277,6577.804
1278,6602.712
1279,6617.498
1280,6616.752
1281,6609.7
1282,6605.682
1283,6608.006
1284,6616.75
1285,6630.925
1286,6645.59
1287,6654.892
1288,6656.165
1289,6652.184
1290,6646.163
1291,6639.757
1292,6633.378
1293,6627.992
1294,6628.072
1295,6639.376
1296,6662.119
1297,6682.646
1298,6685.659
1299,6671.197
1300,6656.733
1301,6658.228
1302,6669.721
1303,6673.803
1304,6660.042
1305,6643.06
1306,6642.757
1307,6663.739
1308,6687.335
1309,6694.457
1310,6685.955
1311,6676.427
1312,6677.607
1313,6686.313
1314,6695.004
1315,6700.377
1316,6707.337
1317,6721.199
1318,6737.69
1319,6744.337
1320,6731.492
1321,6707.939
1322,6689.227
1323,6687.212
1324,6705.034
1325,6743.982
1326,6791.247
1327,6819.859
1328,6808.003
1329,6774.725
1330,6756.571
1331,6774.024
1332,6804.31
1333,6818.31
1334,6811.076
1335,6804.589
1336,6818.625
1337,6844.397
1338,6859.706
1339,6852.447
1340,6839.882
1341,6843.853
1342,6863.798
1343,6872.944
1344,6847.765
1345,6803.506
1346,6774.237
1347,6781.039
1348,6806.576
1349,6826.954
1350,6832.435
1351,6829.742
1352,6826.335
1353,6828.021
1354,6839.836
1355,6861.033
1356,6874.781
1357,6862.224
1358,6826.064
1359,6792.589
1360,6785.458
1361,6800.687
1362,6822.302
1363,6838.418
1364,6847.569
1365,6850.072
1366,6850.489
1367,6857.521
1368,6878.151
1369,6907.832
1370,6937.7
1371,6961.381
1372,6977.826
1373,6986.719
1374,6988.824
1375,6985.787
1376,6980.137
1377,6978.507
1378,6988.711
1379,7012.098
1380,7038.995
1381,7059.134
1382,7068.242
1383,7065.957
1384,7053.354
1385,7036.541
1386,7022.65
1387,7013.431
1388,7003.61
1389,6988.508
1390,6972.269
1391,6963.334
1392,6964.152
1393,6961.405
1394,6940.034
1395,6902.575
1396,6868.265
1397,6853.223
1398,6852.821
1399,6855.478
1400,6855.834
1401,6859.719
1402,6872.985
1403,6887.909
1404,6887.909
1405,6864.333
1406,6836.592
1407,6829.513
1408,6845.233
1409,6859.071
1410,6849.611
1411,6828.596
1412,6821.52
1413,6839.693
1414,6864.243
1415,6874.047
1416,6871.525
1417,6876.597
1418,6901.511
1419,6927.061
1420,6927.093
1421,6902.394
1422,6887.84
1423,6913.753
1424,6961.787
1425,6992.546
1426,6984.326
1427,6953.498
1428,6920.82
1429,6899.436
1430,6896.971
1431,6915.446
1432,6936.864
1433,6939.277
1434,6920.916
1435,6903.514
1436,6906.345
1437,6924.819
1438,6945.225
1439,6957.215
1440,6956.694
1441,6941.467
1442,6922.731
1443,6919.832
1444,6941.704
1445,6966.763
1446,6969.235
1447,6950.351
1448,6936.217
1449,6947.262
1450,6973.527
1451,6996.601
1452,7007.73
1453,7011.272
1454,7012.501
1455,7016.491
1456,7028.206
1457,7048.656
1458,7071.054
1459,7088.061
1460,7096.521
1461,7095.898
1462,7088.486
1463,7084.486
1464,7094.513
1465,7110.941
1466,7110.329
1467,7079.518
1468,7049.334
1469,7060.523
1470,7112.623
1471,7156.828
1472,7152.021
1473,7117.108
1474,7091.761
1475,7091.119
1476,7092.138
1477,7073.206
1478,7050.168
1479,7056.346
1480,7101.434
1481,7147.1
1482,7153.233
1483,7124.024
1484,7090.493
1485,7075.19
1486,7077.6
1487,7093.185
1488,7112.603
1489,7122.851
1490,7117.539
1491,7112.159
1492,7125.473
1493,7151.848
1494,7163.246
1495,7140.41
1496,7102.899
1497,7079.314
1498,7077.867
1499,7084.577
1500,7085.931
1501,7076.237
1502,7052.477
1503,7023.989
1504,7015.66
1505,7045.558
1506,7087.484
1507,7100.33
1508,7073.256
1509,7038.586
1510,7027.617
1511,7043.223
1512,7077.072
1513,7119.842
1514,7160.723
1515,7189.613
1516,7202.676
1517,7198.839
1518,7181.829
1519,7163.475
1520,7155.264
1521,7159.631
1522,7174.813
1523,7196.874
1524,7218.053
1525,7231.296
1526,7238.632
1527,7246.412
1528,7255.313
1529,7255.529
1530,7239.207
1531,7223.875
1532,7239.286
1533,7289.311
1534,7329.964
1535,7319.95
1536,7282.645
1537,7272.453
1538,7309.199
1539,7349.92
1540,7351.357
1541,7320.152
1542,7286.153
1543,7267.934
1544,7264.373
1545,7272.44
1546,7289.405
1547,7312.608
1548,7337.151
1549,7354.548
1550,7357.877
1551,7352.777
1552,7349.884
1553,7355.959
1554,7372.054
1555,7396.887
1556,7418.278
1557,7420.533
1558,7404.824
1559,7394.192
1560,7407.106
1561,7431.689
1562,7446.964
1563,7442.954
1564,7422.082
1565,7391.758
1566,7377.394
1567,7407.509
1568,7474.887
1569,7538.167
1570,7566.804
1571,7572.291
1572,7574.048
1573,7574.664
1574,7563.406
1575,7537.721
1576,7518.386
1577,7527.925
1578,7562.62
1579,7602.004
1580,7630.706
1581,7644.955
1582,7643.719
1583,7636.487
1584,7637.9
1585,7652.491
1586,7667.972
1587,7672.05
1588,7662.398
1589,7640.569
1590,7612.344
1591,7588.808
1592,7579.351
1593,7584.234
1594,7601.289
1595,7630.101
1596,7671.89
1597,7720.675
1598,7748.015
1599,7725.056
1600,7673.607
1601,7649.849
1602,7678.935
1603,7717.279
1604,7720.114
1605,7705.929
1606,7722.844
1607,7784.556
1608,7852.849
1609,7893.359
1610,7914.023
1611,7935.662
1612,7962.6
1613,7982.224
1614,7987.323
1615,7991.056
1616,8008.481
1617,8025.245
1618,8006.946
1619,7946.866
1620,7897.001
1621,7907.277
1622,7957.721
1623,7997.939
1624,7997.317
1625,7951.881
1626,7867.581
1627,7784.897
1628,7750.938
1629,7764.899
1630,7785.652
1631,7787.542
1632,7787.272
1633,7805.095
1634,7834.544
1635,7855.65
1636,7862.068
1637,7868.045
1638,7881.747
1639,7874.479
1640,7809.825
1641,7712.611
1642,7662.168
1643,7702.439
1644,7780.252
1645,7832.925
1646,7851.775
1647,7855.541
1648,7851.245
1649,7828.593
1650,7783.751
1651,7747.353
1652,7756.835
1653,7804.067
1654,7843.902
1655,7847.948
1656,7828.632
1657,7803.245
1658,7783.037
1659,7776.271
1660,7778.356
1661,7769.136
1662,7739.871
1663,7724.768
1664,7762.126
1665,7828.704
1666,7862.349
1667,7844.754
1668,7834.241
1669,7881.505
1670,7959.375
1671,8017.051
1672,8023.518
1673,7965.177
1674,7859.939
1675,7798.042
1676,7859.657
1677,7979.424
1678,8032.716
1679,7990.197
1680,7930.87
1681,7914.535
1682,7923.845
1683,7929.12
1684,7923.143
1685,7910.99
1686,7903.868
1687,7921.333
1688,7973.632
1689,8033.296
1690,8065.545
1691,8055.783
1692,8002.817
1693,7930.184
1694,7901.292
1695,7960.777
1696,8053.225
1697,8100.104
1698,8088.799
1699,8054.705
1700,8022.449
1701,7995.089
1702,7973.879
1703,7962.213
1704,7963.935
1705,7979.561
1706,8006.967
1707,8039.083
1708,8059.598
1709,8056.012
1710,8040.591
1711,8032.727
1712,8040.451
1713,8062.738
1714,8091.946
1715,8108.376
1716,8098.281
1717,8084.205
1718,8097.072
1719,8125.534
1720,8126.372
1721,8089.068
1722,8063.153
1723,8087.818
1724,8126.433
1725,8125.541
1726,8093.346
1727,8080.492
1728,8106.427
1729,8139.126
1730,8150.539
1731,8146.762
1732,8141.041
1733,8133.349
1734,8115.86
1735,8088.387
1736,8061.319
1737,8047.36
1738,8064.06
1739,8123.842
1740,8188.639
1741,8197.842
1742,8156.011
1743,8139.638
1744,8190.309
1745,8253.114
1746,8270.048
1747,8255.376
1748,8248.496
1749,8251.771
1750,8236.407
1751,8198.777
1752,8183.617
1753,8223.119
1754,8272.5
1755,8272.723
1756,8237.062
1757,8222.442
1758,8249.529
1759,8290.402
1760,8320.61
1761,8335.571
1762,8333.515
1763,8307.732
1764,8250.977
1765,8185.13
1766,8157.933
1767,8189.212
1768,8244.549
1769,8285.671
1770,8283.845
1771,8220.327
1772,8152.054
1773,8176.521
1774,8290.992
1775,8373.588
1776,8350.275
1777,8282.624
1778,8241.768
1779,8237.598
1780,8258.864
1781,8290.325
1782,8314.097
1783,8323.71
1784,8329.127
1785,8332.288
1786,8307.727
1787,8235.309
1788,8162.463
1789,8158.812
1790,8215.883
1791,8262.92
1792,8267.499
1793,8260.489
1794,8268.958
1795,8289.685
1796,8313.249
1797,8329.425
1798,8329.195
1799,8329.998
1800,8370.409
1801,8441.929
1802,8460.571
1803,8381.585
1804,8304.87
1805,8335.3
1806,8422.662
1807,8460.547
1808,8438.35
1809,8419.139
1810,8430.606
1811,8446.372
1812,8445.239
1813,8432.331
1814,8417.115
1815,8407.867
1816,8411.586
1817,8424.473
1818,8435.579
1819,8433.771
1820,8407.999
1821,8370.238
1822,8383.787
1823,8485.072
1824,8564.043
1825,8494.326
1826,8353.717
1827,8317.102
1828,8401.524
1829,8478.231
1830,8483.478
1831,8469.735
1832,8479.781
1833,8494.218
1834,8488
1835,8471.076
1836,8464.142
1837,8467.478
1838,8468.567
1839,8463.925
1840,8460.398
1841,8464.504
1842,8481.012
1843,8507.978
1844,8520.664
1845,8494.143
1846,8435.314
1847,8366.069
1848,8336.811
1849,8414.772
1850,8572.731
1851,8672.837
1852,8647.036
1853,8578.744
1854,8544.288
1855,8532.658
1856,8517.951
1857,8499.576
1858,8486.351
1859,8483.427
1860,8492.913
1861,8499.91
1862,8471.916
1863,8416.884
1864,8414.95
1865,8505.558
1866,8587.162
1867,8562.877
1868,8490.547
1869,8465.381
1870,8479.685
1871,8474.504
1872,8439.977
1873,8407.778
1874,8396.511
1875,8405.511
1876,8432.968
1877,8477.472
1878,8529.114
1879,8548.266
1880,8501.295
1881,8428.146
1882,8390.004
1883,8393.042
1884,8412.258
1885,8433.154
1886,8450.899
1887,8459.128
1888,8449.002
1889,8423.17
1890,8408.859
1891,8430.042
1892,8489.218
1893,8571.478
1894,8593.361
1895,8471.763
1896,8324.821
1897,8357.521
1898,8525.936
1899,8599.576
1900,8525.623
1901,8458.522
1902,8472.693
1903,8488.319
1904,8450.501
1905,8404.942
1906,8401.64
1907,8446.559
1908,8526.048
1909,8573.308
1910,8514.949
1911,8397.478
1912,8328.167
1913,8352.002
1914,8462.572
1915,8585.379
1916,8574.054
1917,8412.032
1918,8292.557
1919,8332.22
1920,8433.312
1921,8494.309
1922,8497.098
1923,8450.32
1924,8409.436
1925,8432.614
1926,8498.997
1927,8555.377
1928,8562.329
1929,8494.231
1930,8417.074
1931,8465.924
1932,8611.731
1933,8643.05
1934,8500.008
1935,8365.967
1936,8359.495
1937,8423.956
1938,8490.929
1939,8519.809
1940,8490.51
1941,8444.352
1942,8427.132
1943,8427.794
1944,8420.434
1945,8410.423
1946,8413.775
1947,8409.772
1948,8361.03
1949,8313.447
1950,8372.521
1951,8504.597
1952,8536.813
1953,8440.464
1954,8381.984
1955,8420.876
1956,8415.164
1957,8297.927
1958,8206.481
1959,8228.853
1960,8240.407
1961,8139.776
1962,8044.051
1963,8077.155
1964,8162.076
1965,8185.382
1966,8170.24
1967,8180.955
1968,8203.23
1969,8191.381
1970,8158.662
1971,8148.59
1972,8144.443
1973,8090.793
1974,8025.681
1975,8064.993
1976,8191.039
1977,8243.882
1978,8175.44
1979,8089.61
1980,8057.786
1981,8085.488
1982,8153.267
1983,8206.047
1984,8205.63
1985,8159.817
1986,8088.854
1987,8029.516
1988,8012.336
1989,8039.468
1990,8096.319
1991,8126.608
1992,8087.465
1993,8039.157
1994,8050.396
1995,8084.134
1996,8084.833
1997,8094.813
1998,8171.425
1999,8213.753
2000,8082.299
2001,7895.09
2002,7872.614
2003,7976.557
2004,8033.663
2005,8008.674
2006,7953.137
2007,7891.613
2008,7830.429
2009,7805.323
2010,7870.072
2011,7978.068
2012,8001.451
2013,7955.448
2014,7988.02
2015,8080.123
2016,8039.476
2017,7863.112
2018,7766.486
2019,7795.08
2020,7775.686
2021,7665.862
2022,7610.34
2023,7673.633
2024,7789.986
2025,7889.211
2026,7909.955
2027,7843.433
2028,7762.136
2029,7713.794
2030,7693.271
2031,7695.568
2032,7724.223
2033,7763.962
2034,7764.589
2035,7713.031
2036,7671.831
2037,7675.56
2038,7689.387
2039,7678.241
2040,7622.208
2041,7532.414
2042,7477.943
2043,7489.389
2044,7506.092
2045,7483.838
2046,7434.052
2047,7380.385
2048,7357.397
2049,7371.697
2050,7371.288
2051,7340.22
2052,7347.743
2053,7414.368
2054,7446.221
2055,7402.207
2056,7366.797
2057,7374.632
2058,7342.383
2059,7253.601
2060,7233.466
2061,7316.108
2062,7354.417
2063,7277.308
2064,7168.282
2065,7094.586
2066,7074.938
2067,7105.334
2068,7154.203
2069,7183.383
2070,7150.324
2071,7074.565
2072,7054.637
2073,7105.516
2074,7136.135
2075,7113.837
2076,7077.995
2077,7043.994
2078,6998.193
2079,6923.335
2080,6805.191
2081,6722.428
2082,6817.944
2083,6982.321
2084,6932.498
2085,6740.159
2086,6703.11
2087,6790.345
2088,6783.149
2089,6698.771
2090,6674.912
2091,6728.362
2092,6810.375
2093,6839.442
2094,6746.722
2095,6627.873
2096,6602.867
2097,6592.643
2098,6501.742
2099,6449.831
2100,6539.317
2101,6583.667
2102,6442.733
2103,6337.353
2104,6424.272
2105,6501.646
2106,6435.904
2107,6375.343
2108,6393.946
2109,6358.398
2110,6243.665
2111,6224.037
2112,6303.391
2113,6250.931
2114,6080.166
2115,6070.92
2116,6222.215
2117,6284.165
2118,6207.668
2119,6098.417
2120,6066.333
2121,6192.07
2122,6315.584
2123,6213.718
2124,5999.195
2125,5877.612
2126,5873.444
2127,5944.331
2128,6003.297
2129,5976.97
2130,5862.994
2131,5713.703
2132,5674.424
2133,5780.325
2134,5852.205
2135,5805.876
2136,5717.084
2137,5643.078
2138,5606.793
2139,5596.203
2140,5576.865
2141,5575.273
2142,5639.395
2143,5670.931
2144,5545.855
2145,5408.489
2146,5433.698
2147,5509.437
2148,5497.703
2149,5417.622
2150,5325.56
2151,5292.39
2152,5316.7
2153,5276.395
2154,5160.592
2155,5104.776
2156,5141.698
2157,5202.319
2158,5224.154
2159,5158.957
2160,5018.752
2161,4853.938
2162,4765.219
2163,4822.286
2164,4910.213
2165,4907.05
2166,4789.814
2167,4618.376
2168,4571.498
2169,4662.863
2170,4682.053
2171,4590.327
2172,4515.366
2173,4503.232
2174,4533.741
2175,4520.819
2176,4394.153
2177,4302.114
2178,4374.981
2179,4473.125
2180,4467.125
2181,4365.95
2182,4269.383
2183,4368.985
2184,4553.389
2185,4448.099
2186,4196.909
2187,4210.605
2188,4259.394
2189,3990.915
2190,3808.284
2191,4055.13
2192,4275.843
2193,4175.358
2194,4024.193
2195,3964.246
2196,3910.347
2197,3886.779
2198,3982.745
2199,3977.38
2200,3616.825
2201,3341.718
2202,3557.793
2203,3819.361
2204,3799.43
2205,3745.616
2206,3766.097
2207,3714.379
2208,3572.487
2209,3439.991
2210,3419.458
2211,3541.578
2212,3484.842
2213,3084.521
2214,2936.982
2215,3265.27
2216,3421.232
2217,3281.038
2218,3335.86
2219,3510.458
2220,3411.024
2221,3166.999
2222,3050.724
2223,3078.661
2224,3179.042
2225,3220.779
2226,3175.273
2227,3144.689
2228,3100.904
2229,2929.855
2230,2667.238
2231,2441.289
2232,2475.714
2233,2815.01
2234,3051.828
2235,3002.3
2236,2850.254
2237,2706.538
2238,2599.663
2239,2504.394
2240,2399.635
2241,2366.443
2242,2435.622
2243,2484.627
2244,2449.991
2245,2365.718
2246,2328.968
2247,2428.503
2248,2469.25
2249,2281.882
2250,2105.044
2251,2098.083
2252,2156.337
2253,2221.698
2254,2290.684
2255,2249.373
2256,2018.917
2257,1922.847
2258,2139.804
2259,2293.233
2260,2237.914
2261,2179.653
2262,2146.81
2263,2059.61
2264,1954.225
2265,1908.016
2266,1997.845
2267,2160.256
2268,2149.381
2269,1933.792
2270,1652.583
2271,1434.971
2272,1363.303
2273,1394.481
2274,1489.84
2275,1646.847
2276,1757.919
2277,1664.914
2278,1446.111
2279,1273.683
2280,1306.635
2281,1475.049
2282,1398.205
2283,1196.116
2284,1303.189
2285,1548.943
2286,1611.835
2287,1423.033
2288,1154.024
2289,1204.097
2290,1400.771
2291,1291.735
2292,1140.601
2293,1248.637
2294,1417.79
2295,1440.887
2296,1214.435
2297,899.6844
2298,756.7161
2299,828.484
2300,1023.567
