400,6736.13
401,6741.413
402,6708.349
403,6658.957
404,6618.083
405,6604.843
406,6612.168
407,6625.436
408,6630.908
409,6627.026
410,6621.619
411,6622.679
412,6634.02
413,6651.387
414,6669.627
415,6684.065
416,6692.466
417,6693.415
418,6685.705
419,6671.762
420,6657.088
421,6647.228
422,6643.816
423,6640.287
424,6629.07
425,6605.29
426,6579.243
427,6566.533
428,6581.621
429,6619.019
430,6655.701
431,6668.225
432,6646.294
433,6607.555
434,6573.156
435,6559.996
436,6561.37
437,6562.328
438,6548.801
439,6521.308
440,6492.868
441,6476.8
442,6479.562
443,6493.73
444,6510.23
445,6520.354
446,6517.126
447,6494.156
448,6446.129
449,6383.981
450,6331.409
451,6312.167
452,6333.319
453,6371.661
454,6400.892
455,6400.948
456,6379.558
457,6352.255
458,6333.609
459,6327.104
460,6328.688
461,6334.181
462,6338.901
463,6337.384
464,6324.129
465,6295.77
466,6256.649
467,6212.859
468,6170.437
469,6135.247
470,6113.043
471,6109.35
472,6122.944
473,6144.401
474,6163.848
475,6174.536
476,6178.271
477,6178.313
478,6177.564
479,6176.616
480,6175.101
481,6172.607
482,6167.886
483,6158.917
484,6143.67
485,6120.804
486,6090.334
487,6052.436
488,6009.262
489,5972.114
490,5954.883
491,5969.718
492,6009.198
493,6053.284
494,6082.027
495,6084.312
496,6061.025
497,6013.917
498,5949.501
499,5888.518
500,5854.245
501,5865.168
502,5907.215
503,5952.59
504,5974.661
505,5967.02
506,5941.298
507,5909.655
508,5879.921
509,5851.988
510,5824.894
511,5798.958
512,5779.685
513,5773.855
514,5786.67
515,5808.708
516,5822.583
517,5811.529
518,5776.097
519,5735.991
520,5711.767
521,5713.427
522,5727.269
523,5736.406
524,5727.913
525,5707.894
526,5688.22
527,5679.672
528,5681.263
529,5684.587
530,5681.3
531,5668.122
532,5648.043
533,5624.434
534,5600.852
535,5581.354
536,5570.055
537,5569.16
538,5570.919
539,5564.358
540,5539.951
541,5504.938
542,5477.545
543,5475.604
544,5498.822
545,5524.147
546,5527.22
547,5496.281
548,5450.29
549,5412.738
550,5401.589
551,5407.441
552,5412.358
553,5400.345
554,5375.818
555,5355.755
556,5356.638
557,5377.071
558,5395.08
559,5387.734
560,5347.507
561,5300.186
562,5275.797
563,5294.333
564,5333.121
565,5358.151
566,5340.029
567,5288.848
568,5235.214
569,5208.598
570,5213.739
571,5231.768
572,5243.087
573,5238.753
574,5228.25
575,5222.86
576,5228.573
577,5234.167
578,5224.949
579,5189.956
580,5141.699
581,5101.881
582,5090.302
583,5102.129
584,5114.875
585,5106.28
586,5072.421
587,5032.56
588,5007.31
589,5007.75
590,5023.495
591,5041.259
592,5050.332
593,5050.631
594,5044.87
595,5035.678
596,5025.116
597,5014.963
598,5006.844
599,4999.832
600,4990.866
601,4976.909
602,4958.868
603,4943.332
604,4937.291
605,4943.371
606,4953.261
607,4956.99
608,4947.087
609,4927.284
610,4904.487
611,4885.323
612,4874.327
613,4874.971
614,4890.194
615,4914.081
616,4933.201
617,4934.17
618,4913.902
619,4883.821
620,4856.367
621,4838.491
622,4824.125
623,4805.333
624,4777.147
625,4746.805
626,4724.679
627,4719.586
628,4729.203
629,4746.232
630,4763.4
631,4773.555
632,4769.648
633,4745.043
634,4705.416
635,4671.065
636,4662.917
637,4687.276
638,4722.358
639,4743.292
640,4733.906
641,4705.611
642,4675.267
643,4656.746
644,4648.083
645,4641.986
646,4631.754
647,4616.009
648,4596.297
649,4574.273
650,4553.127
651,4537.376
652,4531.45
653,4535.156
654,4542.07
655,4545.372
656,4541.495
657,4533.729
658,4526.219
659,4522.397
660,4523.295
661,4529.426
662,4540.281
663,4549.634
664,4549.309
665,4532.474
666,4504.494
667,4477.335
668,4462.389
669,4461.263
670,4467.482
671,4474.389
672,4476.34
673,4468.946
674,4447.979
675,4415.443
676,4385.036
677,4371.672
678,4382.312
679,4401.117
680,4408.252
681,4389.407
682,4354.783
683,4321.414
684,4303.86
685,4299.688
686,4299.16
687,4293.327
688,4282.145
689,4271.273
690,4266.172
691,4266.882
692,4268.38
693,4265.571
694,4257.242
695,4247.425
696,4240.486
697,4238.532
698,4239.257
699,4239.854
700,4238.229
701,4234.33
702,4228.471
703,4220.771
704,4210.497
705,4196.694
706,4179.018
707,4161.077
708,4148.033
709,4144.314
710,4147.268
711,4150.209
712,4146.766
713,4135.751
714,4120.136
715,4102.988
716,4087.236
717,4075.655
718,4070.956
719,4073.329
720,4079.077
721,4084.196
722,4085.893
723,4083.975
724,4078.592
725,4070.201
726,4060.21
727,4050.202
728,4041.107
729,4031.061
730,4017.457
731,3998.635
732,3978.707
733,3963.957
734,3959.723
735,3963.156
736,3967.148
737,3965.057
738,3956.398
739,3945.016
740,3934.741
741,3927.632
742,3924.083
743,3924.372
744,3926.877
745,3927.632
746,3922.595
747,3912.076
748,3903.52
749,3904.967
750,3918.354
751,3932.32
752,3933.81
753,3914.75
754,3881.499
755,3843.001
756,3808.048
757,3784.99
758,3782.037
759,3803.835
760,3836.467
761,3860.005
762,3857.714
763,3834.857
764,3806.137
765,3785.118
766,3774.691
767,3771.804
768,3773.202
769,3773.532
770,3765.965
771,3744.259
772,3713.538
773,3689.126
774,3686.124
775,3704.564
776,3727.505
777,3737.424
778,3729.014
779,3714.197
780,3706.047
781,3709.535
782,3715.362
783,3712.843
784,3697.724
785,3679.918
786,3671.186
787,3677.632
788,3689.762
789,3695.448
790,3686.461
791,3668.048
792,3648.358
793,3634.098
794,3625.81
795,3622.35
796,3622.153
797,3621.311
798,3615.136
799,3600.151
800,3581.006
801,3565.722
802,3561.226
803,3565.283
804,3571.035
805,3571.981
806,3565.562
807,3551.62
808,3530.237
809,3504.323
810,3478.837
811,3458.656
812,3446.855
813,3444.957
814,3454.194
815,3470.259
816,3483.266
817,3483.37
818,3468.396
819,3445.204
820,3421.14
821,3403.292
822,3398.414
823,3413.049
824,3443.386
825,3469.096
826,3468.61
827,3435.762
828,3392.821
829,3364.957
830,3364.334
831,3375.408
832,3379.161
833,3364.124
834,3337.33
835,3308.585
836,3286.962
837,3279.551
838,3293.059
839,3327.821
840,3363.454
841,3375.451
842,3348.838
843,3303.889
844,3268.99
845,3264.609
846,3278.033
847,3287.824
848,3277.874
849,3257.32
850,3242.819
851,3247.057
852,3261.55
853,3270.727
854,3261.961
855,3240.177
856,3216.868
857,3202.39
858,3199.614
859,3208.297
860,3227.185
861,3247.425
862,3256.713
863,3244.703
864,3217.219
865,3188.148
866,3170.154
867,3164.47
868,3166.132
869,3170.259
870,3173.285
871,3172.42
872,3165.23
873,3153.067
874,3139.658
875,3128.515
876,3120.108
877,3112.871
878,3105.406
879,3099.069
880,3097.177
881,3102.737
882,3113.721
883,3124.298
884,3128.877
885,3126.803
886,3121.352
887,3115.825
888,3112.32
889,3111.932
890,3115.425
891,3118.187
892,3110.929
893,3085.047
894,3047.476
895,3019.179
896,3020.46
897,3049.541
898,3084.043
899,3101.699
900,3097.613
901,3083.553
902,3071.545
903,3065.398
904,3060.852
905,3053.482
906,3042.607
907,3031.283
908,3022.654
909,3018.307
910,3018.258
911,3022.345
912,3027.887
913,3029.621
914,3022.436
915,3007.263
916,2991.26
917,2981.622
918,2979.98
919,2982.247
920,2984.12
921,2982.22
922,2974.105
923,2957.602
924,2935.686
925,2916.573
926,2908.344
927,2911.111
928,2916.976
929,2917.999
930,2912.652
931,2905.748
932,2902.111
933,2901.267
934,2897.615
935,2885.713
936,2867.39
937,2851.331
938,2846.008
939,2850.915
940,2857.336
941,2856.682
942,2847.818
943,2836.196
944,2827.245
945,2822.343
946,2819.422
947,2816.385
948,2812.272
949,2807.054
950,2800.81
951,2794.828
952,2791.336
953,2792.298
954,2795.763
955,2796.895
956,2791.167
957,2778.718
958,2762.928
959,2747.271
960,2735.696
961,2732.456
962,2740.959
963,2755.52
964,2764.901
965,2759.416
966,2745.209
967,2737.428
968,2749.155
969,2774.336
970,2796.837
971,2802.325
972,2791.524
973,2772.475
974,2752.818
975,2737.061
976,2728.306
977,2728.532
978,2732.371
979,2731.481
980,2719.582
981,2702.575
982,2690.833
983,2692.267
984,2701.785
985,2710
986,2709.735
987,2704.227
988,2699.79
989,2700.719
990,2702.837
991,2699.741
992,2687.807
993,2673.734
994,2666.61
995,2671.217
996,2678.211
997,2675.384
998,2656.179
999,2630.345
1000,2610.515
1001,2603.883
1002,2603.905
1003,2601.937
1004,2593.789
1005,2585.144
1006,2582.99
1007,2591.915
1008,2605.481
1009,2614.095
1010,2611.075
1011,2601.339
1012,2592.697
1013,2590.899
1014,2594.624
1015,2601.017
1016,2607.206
1017,2610.225
1018,2607.107
1019,2597.258
1020,2586.121
1021,2580.053
1022,2581.234
1023,2582.8
1024,2576.772
1025,2560.888
1026,2543.413
1027,2533.637
1028,2535.056
1029,2542.109
1030,2548.547
1031,2551.66
1032,2553.416
1033,2556.022
1034,2559.624
1035,2562.066
1036,2561.168
1037,2556.516
1038,2549.342
1039,2540.953
1040,2532.888
1041,2526.871
1042,2524.455
1043,2525.266
1044,2527.71
1045,2530.437
1046,2534.393
1047,2541.712
1048,2553.481
1049,2563.605
1050,2563.01
1051,2545.782
1052,2522.737
1053,2510.185
1054,2518.85
1055,2536.518
1056,2545.092
1057,2533.408
1058,2512.362
1059,2497.198
1060,2495.973
1061,2498.991
1062,2493.952
1063,2476.76
1064,2459.064
1065,2454.093
1066,2465.089
1067,2480.386
1068,2487.436
1069,2483.441
1070,2476.933
1071,2476.73
1072,2485.186
1073,2498.831
1074,2514.13
1075,2529.283
1076,2543.699
1077,2556.867
1078,2568.811
1079,2579.832
1080,2589.868
1081,2596.521
1082,2596.483
1083,2587.822
1084,2574.892
1085,2563.845
1086,2559.504
1087,2562.362
1088,2572.013
1089,2586.483
1090,2600.062
1091,2606.55
1092,2603.207
1093,2593.29
1094,2580.622
1095,2568.215
1096,2558.051
1097,2551.896
1098,2548.55
1099,2544.06
1100,2534.712
1101,2520.958
1102,2506.049
1103,2493.028
1104,2482.895
1105,2475.669
1106,2471.205
1107,2468.512
1108,2466.321
1109,2464.054
1110,2463.659
1111,2467.65
1112,2476.807
1113,2487.603
1114,2495.887
1115,2499.005
1116,2496.872
1117,2489.7
1118,2479.237
1119,2469.053
1120,2462.628
1121,2460.203
1122,2459.335
1123,2457.672
1124,2454.467
1125,2449.893
1126,2444.023
1127,2436.256
1128,2425.737
1129,2412.407
1130,2399.357
1131,2390.448
1132,2386.545
1133,2380.87
1134,2365.555
1135,2340.608
1136,2319.263
1137,2315.537
1138,2330.001
1139,2348.185
1140,2355.707
1141,2350.652
1142,2340.385
1143,2331.911
1144,2327.561
1145,2327.391
1146,2330.84
1147,2334.37
1148,2333.536
1149,2326.493
1150,2319.252
1151,2319.251
1152,2329.023
1153,2341.843
1154,2350.041
1155,2348.706
1156,2336.259
1157,2311.85
1158,2282.643
1159,2261.996
1160,2261.222
1161,2273.732
1162,2284.242
1163,2281.159
1164,2270.526
1165,2263.562
1166,2267.2
1167,2276.494
1168,2284.504
1169,2288.254
1170,2291.427
1171,2298.108
1172,2306.61
1173,2309.251
1174,2299.065
1175,2280.47
1176,2265.152
1177,2262.603
1178,2268.057
1179,2271.319
1180,2265.413
1181,2254.586
1182,2245.503
1183,2241.874
1184,2241.502
1185,2241.533
1186,2240.721
1187,2239.737
1188,2239.136
1189,2236.42
1190,2226.915
1191,2207.654
1192,2187.499
1193,2180.199
1194,2193.886
1195,2216.114
1196,2229.797
1197,2226.714
1198,2216.63
1199,2211.226
1200,2213.975
1201,2218.759
1202,2219.362
1203,2215.099
1204,2209.029
1205,2203.856
1206,2199.681
1207,2195.619
1208,2190.878
1209,2184.975
1210,2177.502
1211,2169.333
1212,2163.57
1213,2163.353
1214,2167.615
1215,2171.159
1216,2169.399
1217,2165.117
1218,2165.123
1219,2174.059
1220,2186.311
1221,2193.303
1222,2190.614
1223,2183.717
1224,2179.416
1225,2179.895
1226,2181.402
1227,2180.116
1228,2176.449
1229,2173.795
1230,2174.905
1231,2178.313
1232,2180.989
1233,2180.983
1234,2179.556
1235,2178.555
1236,2179.386
1237,2182.791
1238,2189.261
1239,2196.2
1240,2198.494
1241,2191.962
1242,2179.456
1243,2166.801
1244,2158.978
1245,2158.139
1246,2165.802
1247,2179.698
1248,2191.34
1249,2192.163
1250,2182.529
1251,2170.415
1252,2163.248
1253,2162.75
1254,2168.175
1255,2177.443
1256,2184.139
1257,2181.054
1258,2167.684
1259,2154.218
1260,2151.154
1261,2158.282
1262,2166.734
1263,2168.649
1264,2164.359
1265,2157.453
1266,2151.119
1267,2147.337
1268,2147.836
1269,2152.726
1270,2159.844
1271,2166.851
1272,2171.328
1273,2170.805
1274,2164.121
1275,2157.01
1276,2157.446
1277,2168.404
1278,2181.134
1279,2185.514
1280,2180.278
1281,2174.046
1282,2174.802
1283,2179.908
1284,2181.033
1285,2172.601
1286,2159.772
1287,2150.245
1288,2149.072
1289,2156.78
1290,2173.094
1291,2191.865
1292,2202.211
1293,2195.958
1294,2181.87
1295,2174.928
1296,2183.117
1297,2196.855
1298,2204.1
1299,2200.486
1300,2190.381
1301,2178.531
1302,2168.817
1303,2164.667
1304,2167.604
1305,2172.436
1306,2172.577
1307,2167.166
1308,2164.045
1309,2171.013
1310,2185.85
1311,2199.428
1312,2204.455
1313,2203
1314,2199.877
1315,2198.26
1316,2198.132
1317,2199.123
1318,2201.092
1319,2204.093
1320,2208.284
1321,2214.396
1322,2223.363
1323,2234.564
1324,2243.732
1325,2246.247
1326,2241.522
1327,2233.027
1328,2224.483
1329,2220.084
1330,2224.232
1331,2237.755
1332,2251.925
1333,2256.733
1334,2251.127
1335,2244.044
1336,2243.775
1337,2249.407
1338,2255.698
1339,2259.009
1340,2260.406
1341,2261.741
1342,2262.972
1343,2261.848
1344,2256.535
1345,2249.626
1346,2245.863
1347,2248.139
1348,2253.888
1349,2259.523
1350,2260.821
1351,2252.822
1352,2232.488
1353,2212.249
1354,2211.853
1355,2239.501
1356,2271.084
1357,2277.791
1358,2256.436
1359,2231.856
1360,2226.788
1361,2238.486
1362,2253.156
1363,2261.962
1364,2268.618
1365,2278.424
1366,2288.987
1367,2290.424
1368,2275.763
1369,2257.639
1370,2255.984
1371,2277.605
1372,2301.438
1373,2304.398
1374,2289.664
1375,2281.961
1376,2299.488
1377,2325.459
1378,2332.677
1379,2311.389
1380,2281.607
1381,2264.829
1382,2265.156
1383,2275.346
1384,2288.166
1385,2297.21
1386,2296.403
1387,2286.036
1388,2274.695
1389,2270.594
1390,2274.145
1391,2281.964
1392,2290.179
1393,2293.729
1394,2287.692
1395,2274.35
1396,2262.823
1397,2260.632
1398,2265.014
1399,2269.766
1400,2272.109
1401,2275.415
1402,2283.045
1403,2290.571
1404,2288.483
1405,2271.64
1406,2250.381
1407,2238.117
1408,2238.653
1409,2244.428
1410,2248.561
1411,2253.349
1412,2264.891
1413,2284.69
1414,2304.479
1415,2315.098
1416,2312.834
1417,2298.006
1418,2273.571
1419,2252.278
1420,2248.946
1421,2265.958
1422,2289.951
1423,2307.622
1424,2313.641
1425,2306.147
1426,2288.392
1427,2274.49
1428,2278.695
1429,2297.343
1430,2313.754
1431,2315.638
1432,2307.899
1433,2299.197
1434,2292.755
1435,2285.466
1436,2274.56
1437,2261.616
1438,2249.885
1439,2242.262
1440,2240.975
1441,2247.666
1442,2258.405
1443,2265.868
1444,2265.586
1445,2261.518
1446,2258.987
1447,2259.988
1448,2263.46
1449,2268.602
1450,2276.323
1451,2287.919
1452,2300.292
1453,2304.391
1454,2293.196
1455,2277.242
1456,2274.586
1457,2292.196
1458,2315.134
1459,2327.287
1460,2328.467
1461,2328.409
1462,2332.81
1463,2335.436
1464,2328.595
1465,2316.534
1466,2313.859
1467,2329.748
1468,2349.87
1469,2354.465
1470,2341.639
1471,2330.463
1472,2337.272
1473,2355.823
1474,2371.981
1475,2375.976
1476,2364.86
1477,2338.24
1478,2311.089
1479,2305.537
1480,2327.872
1481,2352.239
1482,2351.791
1483,2331.395
1484,2315.124
1485,2317.404
1486,2326.877
1487,2328.996
1488,2323.243
1489,2319.709
1490,2324.246
1491,2327.985
1492,2319.8
1493,2303.662
1494,2297.417
1495,2312.668
1496,2333.763
1497,2338.881
1498,2325.388
1499,2311.532
1500,2312.24
1501,2321.14
1502,2325.712
1503,2322.774
1504,2320.921
1505,2327.542
1506,2338.884
1507,2347.327
1508,2346.888
1509,2333.924
1510,2307.782
1511,2285.759
1512,2291.964
1513,2330.68
1514,2374.936
1515,2398.571
1516,2401.318
1517,2394.069
1518,2383.953
1519,2371.605
1520,2357.277
1521,2343.065
1522,2331.935
1523,2327.154
1524,2332.515
1525,2350.726
1526,2375.255
1527,2395.117
1528,2401.321
1529,2388.646
1530,2355.067
1531,2321.484
1532,2319.842
1533,2357.846
1534,2398.366
1535,2404.926
1536,2386.513
1537,2373.991
1538,2381.963
1539,2395.399
1540,2398.757
1541,2396.962
1542,2404.373
1543,2423.323
1544,2435.352
1545,2423.829
1546,2400.621
1547,2389.95
1548,2402.34
1549,2426.235
1550,2448.518
1551,2459.165
1552,2449.603
1553,2423.344
1554,2401.5
1555,2402.086
1556,2416.675
1557,2427.57
1558,2426.627
1559,2418.104
1560,2407.562
1561,2402.827
1562,2412.097
1563,2433.163
1564,2452.102
1565,2457.838
1566,2454.003
1567,2448.069
1568,2447.15
1569,2458.024
1570,2481.984
1571,2501.611
1572,2496.862
1573,2470.14
1574,2441.618
1575,2427.875
1576,2434.178
1577,2462.45
1578,2497.972
1579,2515.44
1580,2504.108
1581,2484.873
1582,2480.059
1583,2488.904
1584,2499.154
1585,2502.263
1586,2496.016
1587,2480.807
1588,2469.424
1589,2478.837
1590,2506.145
1591,2523.448
1592,2510.522
1593,2488.322
1594,2487.941
1595,2514.058
1596,2546.593
1597,2568.938
1598,2578.423
1599,2575.666
1600,2568.725
1601,2570.688
1602,2584.007
1603,2587.9
1604,2563.178
1605,2528.025
1606,2518.07
1607,2543.875
1608,2578.228
1609,2595.577
1610,2595.306
1611,2584.939
1612,2575.866
1613,2583.44
1614,2612.886
1615,2635.5
1616,2619.193
1617,2578.572
1618,2560.159
1619,2583.072
1620,2607.712
1621,2594.948
1622,2563.529
1623,2556.974
1624,2585.153
1625,2612.869
1626,2611.262
1627,2592.495
1628,2578.763
1629,2575.055
1630,2571.881
1631,2563.643
1632,2555.733
1633,2554.59
1634,2560.734
1635,2571.575
1636,2580.664
1637,2575.831
1638,2550.565
1639,2527.46
1640,2536.033
1641,2572.844
1642,2605.102
1643,2610.907
1644,2599.47
1645,2584.525
1646,2575.595
1647,2579.843
1648,2592.653
1649,2592.38
1650,2564.823
1651,2534.708
1652,2535.431
1653,2565.574
1654,2595.419
1655,2603.722
1656,2590.561
1657,2560.896
1658,2533.501
1659,2532.573
1660,2559.348
1661,2587.206
1662,2596.449
1663,2597.458
1664,2605.519
1665,2616.878
1666,2615.728
1667,2597.422
1668,2576.883
1669,2568.714
1670,2575.804
1671,2596.891
1672,2622.182
1673,2634.438
1674,2626.576
1675,2615.969
1676,2619.469
1677,2625.292
1678,2610.29
1679,2578.402
1680,2564.326
1681,2589.26
1682,2627.851
1683,2648.789
1684,2648.678
1685,2639.156
1686,2626.868
1687,2611.277
1688,2594.612
1689,2591.528
1690,2617.181
1691,2657.652
1692,2680.466
1693,2673.693
1694,2659.463
1695,2656.85
1696,2657.247
1697,2645.913
1698,2629.432
1699,2629.794
1700,2651.501
1701,2666.766
1702,2652.067
1703,2621.646
1704,2600.374
1705,2599.254
1706,2618.393
1707,2649.492
1708,2668.848
1709,2658.151
1710,2635.467
1711,2628.565
1712,2636.69
1713,2636.61
1714,2618.271
1715,2597.84
1716,2591.761
1717,2603.079
1718,2630.238
1719,2664.516
1720,2691.778
1721,2703.97
1722,2704.211
1723,2697.539
1724,2692.358
1725,2697.103
1726,2707.911
1727,2712.473
1728,2706.007
1729,2696.095
1730,2690.353
1731,2692.044
1732,2701.8
1733,2703.621
1734,2672.263
1735,2616.701
1736,2592.706
1737,2632.402
1738,2680.816
1739,2674.819
1740,2629.325
1741,2596.571
1742,2599.422
1743,2628.053
1744,2666.519
1745,2687.938
1746,2671.771
1747,2646.827
1748,2657.687
1749,2698.401
1750,2720.471
1751,2705.018
1752,2690.496
1753,2706.068
1754,2713.806
1755,2664.857
1756,2589.519
1757,2565.557
1758,2617.16
1759,2697.051
1760,2761.778
1761,2793.467
1762,2783.767
1763,2758.375
1764,2755.282
1765,2773.929
1766,2779.362
1767,2756.274
1768,2728.628
1769,2716.715
1770,2707.081
1771,2680.633
1772,2650.593
1773,2648.061
1774,2680.126
1775,2725.182
1776,2763.059
1777,2781.392
1778,2772.862
1779,2751.573
1780,2737.616
1781,2732.801
1782,2726.113
1783,2717.713
1784,2724.115
1785,2752.354
1786,2777.673
1787,2775.606
1788,2761.973
1789,2766.737
1790,2788.424
1791,2800.483
1792,2791.592
1793,2775.583
1794,2764.561
1795,2757.886
1796,2753.358
1797,2755.577
1798,2771.158
1799,2792.415
1800,2800.079
1801,2790.66
1802,2786.216
1803,2801.354
1804,2820.035
1805,2822.859
1806,2808.127
1807,2781.742
1808,2756.885
1809,2752.021
1810,2767.16
1811,2775.392
1812,2759.347
1813,2734.175
1814,2719.056
1815,2724.041
1816,2754.236
1817,2793.152
1818,2810.75
1819,2803.134
1820,2798.295
1821,2812.929
1822,2834.116
1823,2845.376
1824,2832.409
1825,2786.376
1826,2740.968
1827,2748.773
1828,2802.057
1829,2837.574
1830,2823.52
1831,2783.384
1832,2744.898
1833,2732.822
1834,2764.312
1835,2815.621
1836,2850.382
1837,2855.994
1838,2835.549
1839,2803.897
1840,2788.575
1841,2797.084
1842,2796.611
1843,2767.375
1844,2751.744
1845,2794.18
1846,2863.424
1847,2901.295
1848,2894.224
1849,2859.845
1850,2820.896
1851,2805.172
1852,2819.264
1853,2827.024
1854,2803.871
1855,2783.146
1856,2801.802
1857,2840.491
1858,2860.802
1859,2855.085
1860,2835.712
1861,2814.808
1862,2803.734
1863,2801.813
1864,2787.378
1865,2751.936
1866,2731.85
1867,2758.783
1868,2798.893
1869,2803.307
1870,2774.119
1871,2739.908
1872,2723.89
1873,2743.91
1874,2790.832
1875,2819.78
1876,2808.747
1877,2790.033
1878,2792.515
1879,2808.363
1880,2822.768
1881,2827.202
1882,2816.317
1883,2794.223
1884,2770.69
1885,2759.171
1886,2775.914
1887,2817.638
1888,2854.29
1889,2868.033
1890,2870.977
1891,2874.189
1892,2872.578
1893,2860.14
1894,2843.907
1895,2833.421
1896,2822.427
1897,2798.488
1898,2777.96
1899,2797.833
1900,2847.26
1901,2860.771
1902,2817.126
1903,2774.787
1904,2776.938
1905,2808.574
1906,2844.022
1907,2851.583
1908,2807.614
1909,2745.022
1910,2712.076
1911,2707.337
1912,2704.42
1913,2705.725
1914,2735.099
1915,2783.9
1916,2807.423
1917,2796.214
1918,2799.131
1919,2839.586
1920,2872.204
1921,2861.398
1922,2834.25
1923,2819.583
1924,2793.831
1925,2727.819
1926,2661.73
1927,2657.825
1928,2699.906
1929,2728.016
1930,2732.163
1931,2743.067
1932,2772.718
1933,2810.773
1934,2840.298
1935,2836.354
1936,2798.371
1937,2777.198
1938,2805.315
1939,2845.408
1940,2858.832
1941,2849.601
1942,2830.663
1943,2807.158
1944,2782.959
1945,2771.714
1946,2788.139
1947,2811.296
1948,2801.91
1949,2768.109
1950,2753.875
1951,2767.66
1952,2781.202
1953,2779.541
1954,2767.234
1955,2746.81
1956,2715.235
1957,2677.608
1958,2657.713
1959,2667.579
1960,2679.487
1961,2673.417
1962,2682.345
1963,2733.918
1964,2774.372
1965,2744.388
1966,2695.924
1967,2707.336
1968,2736.49
1969,2696.521
1970,2625.598
1971,2627.011
1972,2688.981
1973,2720.386
1974,2709.994
1975,2716.701
1976,2754.903
1977,2789.24
1978,2792.591
1979,2752.049
1980,2684.741
1981,2652.226
1982,2677.056
1983,2702.778
1984,2692.665
1985,2672.491
1986,2662.715
1987,2647.714
1988,2615.338
1989,2582.874
1990,2570.571
1991,2587.944
1992,2633.833
1993,2670.859
1994,2664.445
1995,2647.464
1996,2664.294
1997,2694.886
1998,2700.81
1999,2687.058
2000,2674.311
2001,2655.626
2002,2614.874
2003,2581.204
2004,2602.932
2005,2653.51
2006,2663.782
2007,2634.904
2008,2616.304
2009,2622.29
2010,2638.316
2011,2644.744
2012,2619.929
2013,2579.53
2014,2572.378
2015,2583.286
2016,2532.208
2017,2435.007
2018,2416.777
2019,2509.362
2020,2623.814
2021,2684.849
2022,2646.345
2023,2533.48
2024,2467.151
2025,2493.959
2026,2539.647
2027,2557.69
2028,2560.676
2029,2559.965
2030,2556.37
2031,2553.402
2032,2560.726
2033,2569.529
2034,2537.119
2035,2462.353
2036,2427.485
2037,2465.508
2038,2497.941
2039,2477.014
2040,2439.747
2041,2419.249
2042,2421.14
2043,2439.751
2044,2453.332
2045,2455.427
2046,2474.265
2047,2512.321
2048,2511.814
2049,2453.397
2050,2409.466
2051,2424.922
2052,2467.972
2053,2498.018
2054,2475.459
2055,2405.223
2056,2376.482
2057,2424.451
2058,2466.952
2059,2456.337
2060,2429.72
2061,2420.754
2062,2441.566
2063,2481.188
2064,2494.51
2065,2459.357
2066,2394.693
2067,2328.642
2068,2296.911
2069,2306.205
2070,2322.124
2071,2318.879
2072,2287.135
2073,2258.224
2074,2307.714
2075,2401.498
2076,2385.457
2077,2264.949
2078,2211.291
2079,2262.554
2080,2323.922
2081,2323.886
2082,2223.584
2083,2105.555
2084,2131.453
2085,2254.954
2086,2294.915
2087,2232.647
2088,2152.492
2089,2119.654
2090,2175.338
2091,2257.419
2092,2268.14
2093,2223.457
2094,2180.557
2095,2144.488
2096,2106.51
2097,2089.063
2098,2112.396
2099,2141.86
2100,2143.808
2101,2145.693
2102,2169.022
2103,2171.278
2104,2131.96
2105,2122.157
2106,2161.837
2107,2125.037
2108,1989.286
2109,1958.778
2110,2079.878
2111,2119.411
2112,2026.064
2113,2009.408
2114,2094.356
2115,2096.423
2116,2004.028
2117,1961.286
2118,1994.72
2119,2043.406
2120,2080.345
2121,2097.572
2122,2066.969
2123,1970.24
2124,1912.416
2125,1995.701
2126,2076.484
2127,2003.625
2128,1879.451
2129,1828.742
2130,1867.061
2131,1956.709
2132,1985.191
2133,1909.36
2134,1825.736
2135,1802.749
2136,1848.568
2137,1917.557
2138,1917.585
2139,1865.918
2140,1861.717
2141,1877.161
2142,1819.619
2143,1744.268
2144,1751.513
2145,1781.584
2146,1749.48
2147,1711.681
2148,1735.24
2149,1802.812
2150,1869.6
2151,1866.512
2152,1782.529
2153,1707.627
2154,1681.124
2155,1668.983
2156,1659.308
2157,1664.001
2158,1687.642
2159,1723.814
2160,1721.721
2161,1633.647
2162,1548.183
2163,1557.574
2164,1588.462
2165,1577.088
2166,1588.773
2167,1636.478
2168,1600.636
2169,1477.348
2170,1425.783
2171,1467.505
2172,1493.342
2173,1478.485
2174,1457.051
2175,1467.699
2176,1530.066
2177,1563.566
2178,1505.198
2179,1445.185
2180,1452.573
2181,1485.74
2182,1481.317
2183,1371.396
2184,1228.205
2185,1243.536
2186,1378.281
2187,1455.061
2188,1441.27
2189,1377.727
2190,1341.321
2191,1379.039
2192,1421.406
2193,1411.801
2194,1357.573
2195,1287.963
2196,1247.595
2197,1234.639
2198,1216.137
2199,1223.582
2200,1295.459
2201,1325.412
2202,1235.519
2203,1192.987
2204,1280.251
2205,1315.914
2206,1247.647
2207,1217.962
2208,1238.699
2209,1216.794
2210,1152.231
2211,1092.973
2212,1082.735
2213,1132.11
2214,1160.579
2215,1135.702
2216,1134.504
2217,1151.214
2218,1091.916
2219,1023.742
2220,1082.854
2221,1135.059
2222,1034.154
2223,989.9305
2224,1114.751
2225,1145.547
2226,1009.584
2227,923.9427
2228,924.3372
2229,907.0729
2230,869.2404
2231,845.8129
2232,834.9931
2233,841.9654
2234,906.6482
2235,994.1716
2236,977.8123
2237,907.6544
2238,937.8873
2239,960.5023
2240,839.3016
2241,774.6466
2242,871.5544
2243,876.5212
2244,754.8778
2245,758.7443
2246,842.5224
2247,797.5003
2248,709.5344
2249,712.3486
2250,743.6677
2251,741.0385
2252,707.3352
2253,679.4532
2254,709.0126
2255,748.4995
2256,727.6345
2257,701.135
2258,720.4537
2259,754.3431
2260,759.8735
2261,701.507
2262,638.3025
2263,662.2204
2264,708.508
2265,701.8074
2266,682.9577
2267,684.0489
2268,695.264
2269,675.2217
2270,577.8083
2271,462.1971
2272,400.1227
2273,377.1682
2274,392.8921
2275,485.0318
2276,567.6415
2277,496.907
2278,416.0896
2279,479.7365
2280,517.5828
2281,461.0181
2282,476.7038
2283,517.5945
2284,414.4316
2285,372.1956
2286,559.8946
2287,630.8385
2288,474.6591
2289,415.9502
2290,489.1818
2291,526.2573
2292,485.4241
2293,403.4557
2294,397.0435
2295,447.4598
2296,389.2611
2297,325.4267
2298,427.7534
2299,483.1493
2300,360.2037
