400,18511.39
401,18518.63
402,18551.1
403,18591.21
404,18620.26
405,18624.26
406,18610.85
407,18593.86
408,18586.34
409,18589.63
410,18596.14
411,18598.11
412,18590.97
413,18576.33
414,18556.5
415,18534.14
416,18513.73
417,18500.38
418,18498.91
419,18509.83
420,18529.98
421,18556.09
422,18579.71
423,18581.6
424,18541.21
425,18447.41
426,18342.2
427,18286.13
428,18335.67
429,18475.89
430,18629.13
431,18716.2
432,18697.54
433,18617.88
434,18532.55
435,18487.7
436,18478.71
437,18483.2
438,18479.78
439,18462.98
440,18441.01
441,18422.44
442,18411.95
443,18406.31
444,18401.33
445,18392.83
446,18376.54
447,18348.15
448,18304.09
449,18251.37
450,18205.36
451,18181.47
452,18184.92
453,18202.42
454,18218.8
455,18220.58
456,18201.7
457,18158.21
458,18087.5
459,18003.58
460,17931.67
461,17896.68
462,17899.82
463,17906.04
464,17877.42
465,17790.83
466,17676.88
467,17578.25
468,17532.69
469,17533.04
470,17547.55
471,17545.01
472,17515.88
473,17477.02
474,17446.78
475,17437.68
476,17446.29
477,17466.46
478,17491.65
479,17512.42
480,17518.21
481,17499.13
482,17458.32
483,17410.76
484,17371.76
485,17349.83
486,17340.01
487,17335.8
488,17331.45
489,17324.59
490,17313.82
491,17297.91
492,17277.24
493,17253.26
494,17227.44
495,17201.83
496,17179.32
497,17162.81
498,17152.62
499,17141.43
500,17120.49
501,17083.33
502,17038.88
503,17002.55
504,16988.63
505,16990.83
506,16984.53
507,16944.82
508,16867.48
509,16786.39
510,16739.37
511,16750.66
512,16790.17
513,16814.26
514,16784.2
515,16705.65
516,16608.58
517,16522.48
518,16461.72
519,16423.95
520,16405.96
521,16401.95
522,16400.25
523,16388.45
524,16357.04
525,16310.45
526,16257.31
527,16205.56
528,16155.5
529,16102.63
530,16042.65
531,15980.7
532,15933.61
533,15918.84
534,15941.49
535,15976.13
536,15992.78
537,15967.34
538,15906.03
539,15824.99
540,15740.25
541,15667.99
542,15624.44
543,15625.19
544,15666.2
545,15718.78
546,15752.8
547,15746.78
548,15700.12
549,15615.38
550,15499.65
551,15383.03
552,15302.69
553,15291.55
554,15337.83
555,15402.23
556,15446.02
557,15453.49
558,15435.43
559,15404.02
560,15367.94
561,15328.37
562,15285.5
563,15240.1
564,15195.61
565,15156.12
566,15124.91
567,15098.03
568,15067.8
569,15027.11
570,14981.02
571,14946.17
572,14939.42
573,14962.48
574,14990.81
575,14997.37
576,14965.74
577,14914.01
578,14867.23
579,14845.51
580,14837.79
581,14820.82
582,14773.63
583,14705.48
584,14647.24
585,14629.34
586,14654.14
587,14688.5
588,14697.23
589,14661.38
590,14598.51
591,14531.15
592,14477.8
593,14440.58
594,14417.3
595,14405.45
596,14400.08
597,14395.07
598,14384.47
599,14365.04
600,14335.82
601,14296.02
602,14249.08
603,14204.57
604,14172.5
605,14156.25
606,14142.69
607,14116.19
608,14067.46
609,14015.98
610,13989.33
611,14010.6
612,14065.67
613,14121.81
614,14147.71
615,14136.72
616,14103.1
617,14061.59
618,14021.61
619,13985.06
620,13953.27
621,13927.04
622,13905.88
623,13889.14
624,13876.23
625,13866.86
626,13860.82
627,13857.29
628,13850.88
629,13834.17
630,13800.47
631,13752.95
632,13702.04
633,13658.14
634,13626.99
635,13608.81
636,13603.44
637,13607.11
638,13609.07
639,13597.82
640,13565.97
641,13519.23
642,13465.89
643,13413.83
644,13368.86
645,13336.13
646,13319.94
647,13316.89
648,13319.39
649,13319.92
650,13312.33
651,13291.67
652,13253.27
653,13202.58
654,13158.61
655,13141.19
656,13156.6
657,13182.47
658,13192.88
659,13171.02
660,13130.88
661,13092.93
662,13072.52
663,13056.97
664,13023.94
665,12955.01
666,12867.23
667,12796.84
668,12777.8
669,12805.33
670,12842.68
671,12853.09
672,12828.14
673,12794.6
674,12781.09
675,12798.08
676,12821.95
677,12825.48
678,12793.02
679,12742.1
680,12696.07
681,12671.53
682,12655.03
683,12624.73
684,12564.1
685,12493.41
686,12448.73
687,12461.81
688,12516.03
689,12563.8
690,12559.47
691,12502.54
692,12434.66
693,12398.16
694,12404.04
695,12421
696,12415.06
697,12368.88
698,12297.68
699,12220.38
700,12154.02
701,12110.39
702,12100.32
703,12128.82
704,12176.19
705,12216.11
706,12225.86
707,12204.98
708,12161.89
709,12105.42
710,12048.96
711,12008.46
712,11998.5
713,12013.17
714,12030.13
715,12027.35
716,12002.56
717,11975.45
718,11966.44
719,11976.91
720,11978.81
721,11941.83
722,11859.41
723,11776.12
724,11742.96
725,11785.31
726,11851.05
727,11873.68
728,11806.85
729,11690.56
730,11587.88
731,11551.1
732,11567.95
733,11601.68
734,11618.84
735,11613.8
736,11595.43
737,11572.54
738,11551.75
739,11538.14
740,11536.12
741,11537.23
742,11520.98
743,11467.23
744,11382.21
745,11304.8
746,11275.36
747,11305.55
748,11359.98
749,11399.11
750,11399.74
751,11374.12
752,11339.08
753,11307.67
754,11281.98
755,11262.09
756,11248.19
757,11240.77
758,11240.42
759,11247.18
760,11258.13
761,11269.45
762,11276.66
763,11270.79
764,11240.98
765,11179.1
766,11103.37
767,11046.55
768,11038.48
769,11069.31
770,11101.02
771,11096.75
772,11049.57
773,10979.45
774,10907.07
775,10848.34
776,10813.84
777,10813.53
778,10842.82
779,10876.62
780,10888.59
781,10867.94
782,10831.23
783,10797.71
784,10779.21
785,10771.27
786,10767.26
787,10762.12
788,10754.95
789,10745.63
790,10733.69
791,10717.63
792,10695.72
793,10667.38
794,10637.21
795,10611.13
796,10593.83
797,10583.04
798,10574.18
799,10563.14
800,10548.88
801,10531.64
802,10511.98
803,10493.01
804,10479.14
805,10473.99
806,10472.62
807,10464.99
808,10441.91
809,10407.12
810,10373.68
811,10354.11
812,10348.46
813,10346.1
814,10336.38
815,10314.93
816,10283.71
817,10245.03
818,10203.65
819,10167.25
820,10143.54
821,10135.67
822,10140.54
823,10154.59
824,10172.34
825,10185.31
826,10184.84
827,10167.66
828,10140.46
829,10110.98
830,10085.22
831,10065.52
832,10053.69
833,10048.75
834,10042.73
835,10026.63
836,9997.207
837,9967.438
838,9953.095
839,9961.26
840,9970.85
841,9955.138
842,9898.884
843,9829.318
844,9783.438
845,9787.024
846,9818.803
847,9845.142
848,9839.453
849,9808.436
850,9768.729
851,9734.752
852,9709.264
853,9691.1
854,9678.981
855,9670.927
856,9664.692
857,9658
858,9648.192
859,9632.466
860,9609.267
861,9586.44
862,9576.103
863,9587.828
864,9610.042
865,9620.635
866,9600.718
867,9561.339
868,9529.753
869,9529.687
870,9548.049
871,9550.207
872,9505.54
873,9430.279
874,9370.124
875,9366.926
876,9411.539
877,9460.513
878,9472.972
879,9448.983
880,9417.897
881,9407.759
882,9419.82
883,9435.069
884,9435.151
885,9418.859
886,9398.647
887,9386.641
888,9383.58
889,9380.718
890,9369.517
891,9349.873
892,9329.03
893,9314.313
894,9310.538
895,9320.251
896,9345.315
897,9375.473
898,9389.155
899,9365.645
900,9309.843
901,9251.229
902,9218.989
903,9216.173
904,9220.165
905,9208.264
906,9178.713
907,9150.721
908,9143.344
909,9152.346
910,9149.853
911,9108.405
912,9033.748
913,8965.622
914,8943.638
915,8970.015
916,9008.456
917,9022.239
918,9003.861
919,8975.947
920,8961.489
921,8960.793
922,8950.871
923,8909.046
924,8843.573
925,8794.217
926,8800.108
927,8856.082
928,8912.412
929,8919.677
930,8875.445
931,8823.756
932,8808.498
933,8830.378
934,8848.328
935,8821.772
936,8753.147
937,8685.449
938,8661.057
939,8681.778
940,8712.312
941,8717.744
942,8693.807
943,8663.316
944,8648.697
945,8650.545
946,8650.912
947,8632.536
948,8598.181
949,8566.893
950,8556.869
951,8567.062
952,8581.501
953,8584.91
954,8576.477
955,8566.041
956,8562.972
957,8567.756
958,8574.699
959,8578.277
960,8576.173
961,8568.179
962,8554.38
963,8537.648
964,8522.572
965,8513.229
966,8508.63
967,8504.905
968,8498.56
969,8489.684
970,8480.265
971,8471.915
972,8463.14
973,8450.932
974,8433.162
975,8414.173
976,8401.181
977,8399.421
978,8401.039
979,8392.881
980,8365.511
981,8331.548
982,8311.7
983,8321.465
984,8348.843
985,8372.748
986,8376.236
987,8361.805
988,8337.712
989,8311.283
990,8285.997
991,8264.315
992,8248.738
993,8241.94
994,8246.626
995,8261.84
996,8274.563
997,8269.35
998,8238.708
999,8198.09
1000,8167.004
1001,8157.133
1002,8160.386
1003,8165.63
1004,8164.224
1005,8153.03
1006,8129.655
1007,8093.642
1008,8053.445
1009,8020.057
1010,8001.822
1011,7996.537
1012,7999.362
1013,8006.237
1014,8015.752
1015,8027.073
1016,8038.699
1017,8047.136
1018,8048.536
1019,8040.903
1020,8026.956
1021,8010.145
1022,7994.375
1023,7984.542
1024,7985.636
1025,7999.058
1026,8019.614
1027,8041.44
1028,8060.325
1029,8074.631
1030,8082.967
1031,8084.318
1032,8078.187
1033,8064.188
1034,8044.313
1035,8023.176
1036,8005.425
1037,7993.725
1038,7988.901
1039,7991.285
1040,7994.815
1041,7988.508
1042,7963.24
1043,7932.372
1044,7923.533
1045,7959.538
1046,8019.438
1047,8059.664
1048,8044.824
1049,7995.921
1050,7957.394
1051,7964.511
1052,8003.975
1053,8046.492
1054,8068.407
1055,8069.114
1056,8053.948
1057,8029.323
1058,8005.133
1059,7991.929
1060,7994.885
1061,8005.904
1062,8014.919
1063,8016.117
1064,8011.817
1065,8005.242
1066,7998.656
1067,7992.895
1068,7988.686
1069,7987.208
1070,7990.167
1071,7999.149
1072,8013.008
1073,8028.131
1074,8041.287
1075,8055.216
1076,8076.79
1077,8112.848
1078,8169.328
1079,8251.696
1080,8361.714
1081,8477.67
1082,8568.69
1083,8611.462
1084,8617.218
1085,8607.048
1086,8598.844
1087,8600.022
1088,8615.824
1089,8646.043
1090,8677.527
1091,8695.342
1092,8691.025
1093,8667.324
1094,8628.173
1095,8580.444
1096,8534.742
1097,8501.257
1098,8477.132
1099,8447.418
1100,8398.378
1101,8336.61
1102,8282.392
1103,8253.183
1104,8242.043
1105,8230.319
1106,8203.818
1107,8172.614
1108,8154.885
1109,8162.875
1110,8187.223
1111,8213.682
1112,8231.817
1113,8240.61
1114,8240.519
1115,8235.228
1116,8233.946
1117,8246.121
1118,8272.152
1119,8301.669
1120,8323.762
1121,8328.783
1122,8308.145
1123,8255.406
1124,8184.958
1125,8123.016
1126,8089.884
1127,8068.705
1128,8028.501
1129,7949.925
1130,7859.683
1131,7795.797
1132,7777.972
1133,7779.173
1134,7765.305
1135,7721.876
1136,7667.315
1137,7622.823
1138,7599.335
1139,7596.302
1140,7612.09
1141,7638.24
1142,7661.21
1143,7669.093
1144,7664.155
1145,7655.56
1146,7650.516
1147,7646.447
1148,7637.787
1149,7621.271
1150,7600.618
1151,7580.828
1152,7564.948
1153,7552.33
1154,7541.841
1155,7529.814
1156,7509.52
1157,7474.788
1158,7430.458
1159,7389.897
1160,7365.134
1161,7355.602
1162,7354.618
1163,7355.087
1164,7348.167
1165,7324.512
1166,7281.849
1167,7237.512
1168,7212.068
1169,7215.298
1170,7238.884
1171,7272.632
1172,7302.948
1173,7312.699
1174,7286.983
1175,7238.286
1176,7196.592
1177,7186.148
1178,7194.077
1179,7193.371
1180,7167.03
1181,7132.93
1182,7116.411
1183,7127.197
1184,7143.728
1185,7141.392
1186,7117.44
1187,7095.152
1188,7097.475
1189,7122.457
1190,7150.446
1191,7163.416
1192,7156.954
1193,7132.268
1194,7094.211
1195,7060.869
1196,7053.248
1197,7076.96
1198,7106.383
1199,7112.81
1200,7089.283
1201,7054.272
1202,7026.816
1203,7015.121
1204,7020.062
1205,7041.442
1206,7073.339
1207,7107.663
1208,7135.505
1209,7145.333
1210,7125.268
1211,7078.875
1212,7036.666
1213,7030.469
1214,7060.856
1215,7097.727
1216,7112.586
1217,7104.144
1218,7085.987
1219,7070.148
1220,7060.736
1221,7059.566
1222,7066.349
1223,7075.803
1224,7082.042
1225,7083.877
1226,7086.172
1227,7093.677
1228,7104.417
1229,7111.689
1230,7110.389
1231,7105.576
1232,7106.08
1233,7116.266
1234,7127.25
1235,7127.84
1236,7114.749
1237,7096.753
1238,7083.32
1239,7078.423
1240,7081.556
1241,7091.662
1242,7104.806
1243,7115.825
1244,7121.784
1245,7127.101
1246,7137.633
1247,7153.73
1248,7166.684
1249,7167.51
1250,7157.142
1251,7144.985
1252,7139.518
1253,7140.638
1254,7144.532
1255,7148.34
1256,7152.411
1257,7157.716
1258,7163.067
1259,7163.839
1260,7155.813
1261,7146.397
1262,7152.404
1263,7185.5
1264,7222.256
1265,7225.268
1266,7177.326
1267,7120.412
1268,7106.435
1269,7146.336
1270,7193.657
1271,7201.34
1272,7170.463
1273,7135.489
1274,7125.127
1275,7134.146
1276,7146.25
1277,7150.527
1278,7148.733
1279,7144.422
1280,7140.854
1281,7140.974
1282,7147.313
1283,7158.853
1284,7172.667
1285,7186.616
1286,7201.633
1287,7219.335
1288,7236.936
1289,7244.157
1290,7231.229
1291,7208.473
1292,7202.404
1293,7232.749
1294,7276.004
1295,7292.812
1296,7264.888
1297,7226.841
1298,7220.25
1299,7250.692
1300,7282.817
1301,7284.086
1302,7266.953
1303,7267.367
1304,7305.844
1305,7347.581
1306,7346.21
1307,7295.534
1308,7250.454
1309,7265.685
1310,7327.097
1311,7373.076
1312,7357.466
1313,7311.792
1314,7290.285
1315,7320.805
1316,7380.082
1317,7439.481
1318,7479.752
1319,7489.672
1320,7463.423
1321,7425.766
1322,7412.662
1323,7441.639
1324,7486.994
1325,7517.682
1326,7523.068
1327,7513.008
1328,7498.278
1329,7489.601
1330,7497.679
1331,7525.326
1332,7554.216
1333,7563.243
1334,7552.528
1335,7545.846
1336,7564.039
1337,7595.074
1338,7611.467
1339,7597.57
1340,7572.182
1341,7559.661
1342,7564.313
1343,7566.973
1344,7550.166
1345,7521.238
1346,7499.588
1347,7498.48
1348,7512.98
1349,7534.861
1350,7556.771
1351,7572.366
1352,7576.375
1353,7571.548
1354,7564.43
1355,7559.305
1356,7554.076
1357,7545.805
1358,7538.72
1359,7544.882
1360,7573.792
1361,7613.723
1362,7643.741
1363,7653.254
1364,7657.686
1365,7675.64
1366,7707.13
1367,7734.068
1368,7741.52
1369,7738.427
1370,7742.646
1371,7762.626
1372,7786.842
1373,7802.174
1374,7811.798
1375,7832.268
1376,7874.764
1377,7922.364
1378,7949.816
1379,7948.938
1380,7940.674
1381,7946.476
1382,7959.58
1383,7954.809
1384,7916.407
1385,7864.461
1386,7826.772
1387,7810.05
1388,7793.486
1389,7758.194
1390,7716.391
1391,7695.449
1392,7707.302
1393,7723.173
1394,7709.561
1395,7673.316
1396,7659.597
1397,7701.733
1398,7760.133
1399,7770.898
1400,7710.053
1401,7625.295
1402,7568.876
1403,7557.21
1404,7583.366
1405,7635.093
1406,7683.234
1407,7695.805
1408,7669.918
1409,7637.082
1410,7626.287
1411,7635.287
1412,7648.849
1413,7655.938
1414,7654.545
1415,7644.198
1416,7629.989
1417,7621.155
1418,7623.78
1419,7631.264
1420,7634.075
1421,7628.565
1422,7618.532
1423,7609.263
1424,7613.11
1425,7645.426
1426,7705.068
1427,7755.662
1428,7759.423
1429,7722.968
1430,7685.167
1431,7674.783
1432,7680.747
1433,7683.373
1434,7677.838
1435,7676.627
1436,7690.703
1437,7715.378
1438,7739.963
1439,7754.864
1440,7752.584
1441,7728.102
1442,7700.855
1443,7705.167
1444,7757.272
1445,7820.367
1446,7849.897
1447,7839.302
1448,7817.004
1449,7806.725
1450,7804.529
1451,7798.795
1452,7786.644
1453,7777.032
1454,7779.002
1455,7796.011
1456,7829.055
1457,7872.156
1458,7905.635
1459,7910.561
1460,7894.678
1461,7882.375
1462,7889.83
1463,7909.062
1464,7928.153
1465,7941.505
1466,7948.991
1467,7951.276
1468,7951.482
1469,7953.315
1470,7958.94
1471,7968.705
1472,7981.565
1473,7989.201
1474,7980.87
1475,7955.694
1476,7928.121
1477,7912.246
1478,7908.649
1479,7911.573
1480,7916.55
1481,7921.821
1482,7926.262
1483,7932.11
1484,7943.639
1485,7958.902
1486,7959.775
1487,7927.549
1488,7873.384
1489,7831.027
1490,7823.281
1491,7835.206
1492,7844.817
1493,7843.474
1494,7834.8
1495,7824.317
1496,7823.246
1497,7843.576
1498,7878.333
1499,7899.91
1500,7887.578
1501,7859.007
1502,7842.943
1503,7849.053
1504,7862.979
1505,7872.05
1506,7881.916
1507,7904.43
1508,7940.734
1509,7976.736
1510,7999.763
1511,8014.083
1512,8030.497
1513,8050.989
1514,8063.634
1515,8058.891
1516,8053.039
1517,8073.216
1518,8117.505
1519,8134.604
1520,8079.076
1521,7988.5
1522,7938.531
1523,7964.307
1524,8027.953
1525,8086.408
1526,8117.017
1527,8107.076
1528,8063.688
1529,8030.222
1530,8046.91
1531,8095.167
1532,8127.839
1533,8122.862
1534,8104.902
1535,8100.413
1536,8108.881
1537,8116.83
1538,8119.368
1539,8127.256
1540,8150.499
1541,8180.222
1542,8198.827
1543,8198.175
1544,8186.532
1545,8174.11
1546,8173.252
1547,8197.045
1548,8243.705
1549,8287.6
1550,8305.709
1551,8306.739
1552,8311.949
1553,8329.422
1554,8347.954
1555,8356.913
1556,8357.969
1557,8357.002
1558,8352.042
1559,8330.938
1560,8286.92
1561,8243.531
1562,8232.814
1563,8257.744
1564,8288.582
1565,8301.127
1566,8302.047
1567,8305.816
1568,8321.116
1569,8351.088
1570,8394.477
1571,8435.771
1572,8457.284
1573,8455.999
1574,8440.494
1575,8422.297
1576,8419.979
1577,8451.067
1578,8506.454
1579,8560.019
1580,8590.735
1581,8589.234
1582,8550.954
1583,8499.326
1584,8471.557
1585,8483.419
1586,8514.949
1587,8546.929
1588,8585.693
1589,8646.444
1590,8714.945
1591,8739.938
1592,8687.904
1593,8614.507
1594,8597.1
1595,8649.838
1596,8727.622
1597,8790.253
1598,8820.302
1599,8807.369
1600,8774.473
1601,8767.298
1602,8805.476
1603,8851.147
1604,8864.482
1605,8850.774
1606,8836.596
1607,8832.964
1608,8827.341
1609,8809.561
1610,8791.694
1611,8792.195
1612,8810.688
1613,8827.471
1614,8828.051
1615,8818.12
1616,8807.57
1617,8806.66
1618,8825.835
1619,8860.699
1620,8875.85
1621,8841.355
1622,8796.034
1623,8807.472
1624,8874.31
1625,8903.025
1626,8827.934
1627,8731.123
1628,8727.559
1629,8811.63
1630,8876.237
1631,8856.868
1632,8804.777
1633,8783.591
1634,8806.74
1635,8861.646
1636,8922.207
1637,8942.465
1638,8893.489
1639,8835.139
1640,8849.104
1641,8930.429
1642,8997
1643,8991.933
1644,8931.312
1645,8844.548
1646,8774.739
1647,8771.211
1648,8837.215
1649,8909.084
1650,8932.167
1651,8915.583
1652,8885.43
1653,8857.828
1654,8840.79
1655,8838.611
1656,8847.623
1657,8862.705
1658,8876.353
1659,8880.242
1660,8874.6
1661,8870.006
1662,8877.669
1663,8908.676
1664,8971.311
1665,9041.565
1666,9075.077
1667,9056.452
1668,9020.822
1669,9001.401
1670,8995.822
1671,8990.759
1672,8978.198
1673,8954.814
1674,8928.977
1675,8936.013
1676,9005.613
1677,9099.957
1678,9153.582
1679,9141.493
1680,9084.741
1681,9010.62
1682,8957.585
1683,8960.99
1684,9006.154
1685,9051.553
1686,9072.3
1687,9067.163
1688,9041.325
1689,9017.576
1690,9020.755
1691,9049.881
1692,9087.267
1693,9116.711
1694,9124.965
1695,9104.744
1696,9074.103
1697,9056.915
1698,9059.621
1699,9075.909
1700,9096.625
1701,9108.049
1702,9100.961
1703,9090.631
1704,9098.396
1705,9123.918
1706,9149.938
1707,9162.382
1708,9154.155
1709,9123.228
1710,9089.272
1711,9077.386
1712,9089.361
1713,9108.621
1714,9126.851
1715,9152.43
1716,9192.014
1717,9234.531
1718,9264.742
1719,9286.938
1720,9320.011
1721,9355.183
1722,9333.527
1723,9220.357
1724,9115.026
1725,9142.36
1726,9261.129
1727,9316.011
1728,9251.432
1729,9175.637
1730,9180.92
1731,9237.723
1732,9289.582
1733,9312.958
1734,9304.214
1735,9265.89
1736,9208.6
1737,9147.318
1738,9108.98
1739,9118.314
1740,9161.468
1741,9206.271
1742,9239.891
1743,9270.929
1744,9299.56
1745,9302.262
1746,9262.16
1747,9225.265
1748,9256.302
1749,9331.256
1750,9351.518
1751,9283.917
1752,9220.77
1753,9241.101
1754,9307.088
1755,9354.077
1756,9369.366
1757,9371.905
1758,9368.488
1759,9349.321
1760,9313.4
1761,9288.438
1762,9299.653
1763,9319.416
1764,9300.995
1765,9256.141
1766,9248.671
1767,9299.798
1768,9347.137
1769,9339.945
1770,9315.52
1771,9326.628
1772,9349.154
1773,9316.995
1774,9237.616
1775,9206.066
1776,9269.498
1777,9344.097
1778,9349.062
1779,9330.242
1780,9368.78
1781,9438.604
1782,9438.787
1783,9353.892
1784,9293.009
1785,9329.232
1786,9400.254
1787,9429.304
1788,9408.637
1789,9358.579
1790,9308.484
1791,9294.458
1792,9320.847
1793,9341.643
1794,9321.796
1795,9276.018
1796,9230.756
1797,9224.166
1798,9294.499
1799,9397.648
1800,9422.616
1801,9338.068
1802,9242.059
1803,9213.367
1804,9233.457
1805,9268.957
1806,9314.509
1807,9374.305
1808,9427.119
1809,9432.782
1810,9391.382
1811,9362.008
1812,9379.764
1813,9399.939
1814,9377.234
1815,9340.612
1816,9341.621
1817,9391.5
1818,9474.007
1819,9546.571
1820,9535.643
1821,9423.793
1822,9323.222
1823,9333.024
1824,9418.422
1825,9510.489
1826,9558.665
1827,9525.171
1828,9442.304
1829,9406.361
1830,9461.112
1831,9559.729
1832,9648.558
1833,9679.337
1834,9620.03
1835,9526.839
1836,9479.016
1837,9456.433
1838,9378.64
1839,9268.313
1840,9263.659
1841,9400.18
1842,9501.613
1843,9440.135
1844,9344.555
1845,9369.658
1846,9471.057
1847,9532.188
1848,9534.463
1849,9526.552
1850,9527.503
1851,9520.111
1852,9499.307
1853,9488.217
1854,9499.331
1855,9496.602
1856,9444.638
1857,9378.287
1858,9355.302
1859,9384.246
1860,9441.198
1861,9490.291
1862,9484.067
1863,9422.5
1864,9389.505
1865,9434.558
1866,9480.981
1867,9452.73
1868,9394.144
1869,9379.524
1870,9410.917
1871,9452.797
1872,9476.706
1873,9461.083
1874,9412.299
1875,9373.7
1876,9371.613
1877,9390.313
1878,9417.864
1879,9474.558
1880,9575.387
1881,9663.296
1882,9662.979
1883,9579.182
1884,9461.969
1885,9344.526
1886,9244.728
1887,9190.046
1888,9221.448
1889,9331.074
1890,9406.033
1891,9372.552
1892,9331.891
1893,9389.941
1894,9482.709
1895,9503.266
1896,9461.416
1897,9424.633
1898,9426.911
1899,9474.519
1900,9527.503
1901,9494.983
1902,9361.285
1903,9242.334
1904,9218.938
1905,9250.749
1906,9288.783
1907,9323.532
1908,9355.282
1909,9386.34
1910,9417.724
1911,9431.837
1912,9404.604
1913,9366.711
1914,9387.97
1915,9438.345
1916,9378.149
1917,9202.686
1918,9128.036
1919,9254.274
1920,9376.677
1921,9335.152
1922,9251.336
1923,9263.17
1924,9313.158
1925,9304.447
1926,9270.559
1927,9289.99
1928,9331.364
1929,9303.979
1930,9219.803
1931,9172.618
1932,9174.678
1933,9145.92
1934,9074.078
1935,9056.255
1936,9129.549
1937,9188.971
1938,9162.362
1939,9119.761
1940,9132.828
1941,9182.237
1942,9227.862
1943,9237.051
1944,9188.534
1945,9127.795
1946,9121.938
1947,9146.69
1948,9129.034
1949,9090.539
1950,9122.541
1951,9200.563
1952,9184.394
1953,9079.054
1954,9084.163
1955,9251.962
1956,9365.392
1957,9298.137
1958,9176.472
1959,9108.579
1960,9059.429
1961,8993.047
1962,8959.927
1963,9001.874
1964,9027.937
1965,8941.094
1966,8843.869
1967,8886.118
1968,9001.271
1969,9034.925
1970,8980.778
1971,8917.852
1972,8899.495
1973,8955.159
1974,9028.715
1975,8995.125
1976,8883.304
1977,8884.656
1978,9035.243
1979,9162.454
1980,9150.894
1981,8995.541
1982,8773.491
1983,8695.159
1984,8837.095
1985,8948.396
1986,8864.223
1987,8762.896
1988,8796.895
1989,8860.845
1990,8842.449
1991,8793.332
1992,8786.972
1993,8823.277
1994,8878.276
1995,8909.729
1996,8881.499
1997,8831.902
1998,8816.715
1999,8814.178
2000,8778.335
2001,8744.605
2002,8776.389
2003,8812.382
2004,8735.464
2005,8599.854
2006,8557.307
2007,8598.181
2008,8603.801
2009,8564.064
2010,8552.842
2011,8577.622
2012,8588.403
2013,8585.739
2014,8618.226
2015,8681.29
2016,8713.289
2017,8664.992
2018,8507.818
2019,8332.751
2020,8369.237
2021,8603.556
2022,8697.001
2023,8538.241
2024,8363.621
2025,8311.314
2026,8334.687
2027,8391.893
2028,8471.655
2029,8524.43
2030,8434.727
2031,8212.604
2032,8094.347
2033,8178.428
2034,8275.555
2035,8275.289
2036,8269.627
2037,8310.732
2038,8332.433
2039,8279.213
2040,8143.098
2041,7972.318
2042,7915.098
2043,8021.006
2044,8117.574
2045,8104.769
2046,8082.965
2047,8109.881
2048,8108.318
2049,8049.47
2050,8034.12
2051,8101.078
2052,8135.61
2053,8087.264
2054,8066.046
2055,8118.456
2056,8134.741
2057,8057.18
2058,7957.025
2059,7885.41
2060,7832.306
2061,7794.798
2062,7792.769
2063,7821.833
2064,7834.569
2065,7820.459
2066,7831.766
2067,7851.824
2068,7757.28
2069,7583.324
2070,7591.785
2071,7797.521
2072,7877.691
2073,7733.4
2074,7562.209
2075,7459.97
2076,7389.728
2077,7359.562
2078,7427.131
2079,7555.67
2080,7620.174
2081,7565.33
2082,7408.828
2083,7313.762
2084,7522.842
2085,7841.246
2086,7808.229
2087,7488.081
2088,7253.355
2089,7194.497
2090,7240.681
2091,7326.199
2092,7395.991
2093,7447.687
2094,7488.01
2095,7439.172
2096,7235.25
2097,7039.723
2098,7034.85
2099,7153.389
2100,7255.424
2101,7188.886
2102,6912.529
2103,6744.304
2104,6895.363
2105,7105.3
2106,7148.425
2107,7049.11
2108,6883.02
2109,6757.813
2110,6731.562
2111,6779.226
2112,6864.798
2113,6946.805
2114,6969.66
2115,6868.233
2116,6677.434
2117,6516.648
2118,6427.571
2119,6392.023
2120,6386.838
2121,6396.294
2122,6482.481
2123,6697.511
2124,6795.484
2125,6534.316
2126,6251.317
2127,6301.336
2128,6440.982
2129,6409.449
2130,6306.549
2131,6249.847
2132,6249.233
2133,6310.393
2134,6454.546
2135,6574.952
2136,6401.479
2137,6039.095
2138,5977.693
2139,6206.382
2140,6313.514
2141,6253.168
2142,6202.881
2143,6188.352
2144,6162.738
2145,6097.412
2146,5988.986
2147,5912.741
2148,5918.388
2149,5911.499
2150,5842.012
2151,5822.057
2152,5868.845
2153,5809.713
2154,5663.57
2155,5691.863
2156,5833.75
2157,5754.906
2158,5552.885
2159,5567.63
2160,5693.382
2161,5659.856
2162,5499.756
2163,5345.665
2164,5311.054
2165,5425.253
2166,5507.953
2167,5423.196
2168,5184.177
2169,4951.621
2170,5035.844
2171,5303.772
2172,5254.734
2173,5015.936
2174,5052.482
2175,5224.255
2176,5190.13
2177,4972.714
2178,4734.112
2179,4727.081
2180,5017.291
2181,5237.558
2182,5222.833
2183,5171.746
2184,5096.604
2185,4827.291
2186,4547.576
2187,4607.085
2188,4796.789
2189,4760.542
2190,4615.23
2191,4542.763
2192,4519.55
2193,4480.852
2194,4357.588
2195,4193.37
2196,4158.92
2197,4235.186
2198,4265.539
2199,4292.621
2200,4420.766
2201,4515.147
2202,4460.651
2203,4459.628
2204,4579.959
2205,4502.546
2206,4212.803
2207,4115.741
2208,4233.069
2209,4280.186
2210,4191.072
2211,4031.263
2212,3945.208
2213,4010.894
2214,4045.636
2215,3940.281
2216,3796.095
2217,3713.846
2218,3760.904
2219,3883.32
2220,3958.997
2221,3943.4
2222,3845.82
2223,3757.155
2224,3736.008
2225,3733.598
2226,3740.674
2227,3802.156
2228,3767.05
2229,3410.91
2230,3095.826
2231,3244.306
2232,3450.825
2233,3366.644
2234,3240.039
2235,3213.264
2236,3188.515
2237,3141.133
2238,3109.962
2239,3097.95
2240,3098.645
2241,3132.316
2242,3171.139
2243,3079.608
2244,2891.814
2245,2836.299
2246,2876.78
2247,2830.851
2248,2757.946
2249,2745.696
2250,2687.342
2251,2558.27
2252,2527.073
2253,2598.886
2254,2622.986
2255,2578.516
2256,2525.498
2257,2568.315
2258,2685.922
2259,2564.424
2260,2248.226
2261,2214.363
2262,2432.373
2263,2563.367
2264,2486.692
2265,2251.793
2266,2157.407
2267,2299.114
2268,2433.44
2269,2400.138
2270,2158.208
2271,1902.141
2272,1829.059
2273,1869.494
2274,1955.458
2275,2090.315
2276,2158.955
2277,2002.172
2278,1825.767
2279,1844.273
2280,1843.168
2281,1753.395
2282,1826.722
2283,1927.927
2284,1698.115
2285,1399.056
2286,1370.302
2287,1480.512
2288,1641.755
2289,1920.206
2290,2080.755
2291,1788.278
2292,1349.883
2293,1138.11
2294,1153.249
2295,1283.705
2296,1363.934
2297,1352.023
2298,1271.581
2299,1114.14
2300,949.8875
