400,19320.01
401,19309.53
402,19278.01
403,19236.11
404,19196.49
405,19168.21
406,19143.85
407,19111.24
408,19059.43
409,18994.62
410,18936.21
411,18903.75
412,18906.69
413,18934.93
414,18976.21
415,19018.51
416,19050.89
417,19062.85
418,19045.02
419,19007.98
420,18979.22
421,18986.5
422,19040
423,19113.04
424,19174.45
425,19198.05
426,19185.56
427,19148.49
428,19098.26
429,19045.67
430,19000.93
431,18974.14
432,18968.26
433,18971.07
434,18968.4
435,18949.06
436,18918.02
437,18885.92
438,18862.8
439,18848.7
440,18835.04
441,18813.08
442,18779.68
443,18743.02
444,18712.65
445,18695.69
446,18686.82
447,18676.67
448,18656.47
449,18625.76
450,18590.66
451,18557.39
452,18531.31
453,18516.15
454,18515.46
455,18529.65
456,18545.04
457,18544.02
458,18510.84
459,18451.85
460,18388.43
461,18341.86
462,18319.67
463,18308.32
464,18292.53
465,18260.99
466,18216.56
467,18165.35
468,18113.1
469,18062.64
470,18015.2
471,17971.93
472,17931.92
473,17891.75
474,17847.9
475,17799.88
476,17755.6
477,17724.35
478,17712.95
479,17711.57
480,17703.53
481,17673.46
482,17630.56
483,17606.5
484,17633.4
485,17715.59
486,17802.38
487,17836.78
488,17776.95
489,17649.58
490,17501.04
491,17375.37
492,17292.13
493,17255.03
494,17267.19
495,17317.17
496,17373.73
497,17404.4
498,17388.64
499,17341.28
500,17283.62
501,17234.75
502,17199.13
503,17175
504,17160.54
505,17152.19
506,17144.92
507,17133.68
508,17115.67
509,17092.24
510,17065.16
511,17035.34
512,17000.25
513,16956.48
514,16901.46
515,16840.46
516,16782.97
517,16738.32
518,16710.99
519,16700.16
520,16704.69
521,16718.24
522,16722.66
523,16698.3
524,16631.81
525,16540.25
526,16449.93
527,16384.8
528,16343.88
529,16310.42
530,16267.85
531,16211.61
532,16152.04
533,16100.34
534,16062.95
535,16034.53
536,16007.99
537,15977.41
538,15942.97
539,15906.82
540,15871.3
541,15841.12
542,15822.48
543,15821.31
544,15833.28
545,15841.16
546,15827.01
547,15784.83
548,15737.7
549,15713
550,15729.49
551,15763.1
552,15776.42
553,15736.27
554,15653.81
555,15567.46
556,15514.96
557,15506.94
558,15522.87
559,15540.59
560,15542.48
561,15520.53
562,15468.05
563,15384.23
564,15293.5
565,15226.93
566,15210.55
567,15226.94
568,15236.12
569,15199.99
570,15120.92
571,15039.91
572,14998.97
573,15014.25
574,15057.08
575,15094.46
576,15101.23
577,15077.5
578,15028.58
579,14961.27
580,14892.32
581,14842.36
582,14829.76
583,14843.86
584,14853.21
585,14826.79
586,14760.85
587,14686.12
588,14635.3
589,14624.49
590,14632.37
591,14632.57
592,14606.2
593,14565.49
594,14530.8
595,14519.16
596,14521.31
597,14515.37
598,14480.95
599,14422.9
600,14367.32
601,14340.43
602,14348.73
603,14370.24
604,14380.94
605,14365.92
606,14333.13
607,14294.02
608,14258.3
609,14228.04
610,14203.12
611,14183.08
612,14164.67
613,14143.3
614,14114.73
615,14081.23
616,14050.61
617,14030.71
618,14024.08
619,14025.85
620,14030.59
621,14032.04
622,14021.9
623,13991.63
624,13936.44
625,13867.12
626,13798.45
627,13744.09
628,13710.02
629,13698.75
630,13711.75
631,13736.39
632,13749.6
633,13728.91
634,13674.62
635,13614.08
636,13575.93
637,13570.49
638,13572.87
639,13554.32
640,13499.38
641,13434.94
642,13396.18
643,13409.17
644,13451.2
645,13483.23
646,13471.04
647,13424.6
648,13378.15
649,13364.02
650,13378.81
651,13388.15
652,13357.47
653,13280.4
654,13188.61
655,13116.21
656,13082.34
657,13074.44
658,13076.03
659,13073.22
660,13060.98
661,13036.15
662,12997.49
663,12954.25
664,12919.32
665,12903.52
666,12899.14
667,12888.43
668,12855
669,12805.25
670,12764.42
671,12757.5
672,12785.28
673,12818.42
674,12826.04
675,12794.82
676,12744.28
677,12697.49
678,12669.62
679,12653.33
680,12637.27
681,12612.41
682,12579.8
683,12543.34
684,12507.02
685,12475.79
686,12454.93
687,12448.52
688,12446.29
689,12428.86
690,12378.12
691,12303.58
692,12240.46
693,12224.04
694,12257.31
695,12299.6
696,12307.57
697,12261.7
698,12189.04
699,12121.92
700,12082.99
701,12067.2
702,12064.55
703,12066.45
704,12070.14
705,12074.44
706,12077.66
707,12074.63
708,12058.81
709,12025.14
710,11983.05
711,11950.18
712,11942.73
713,11953.73
714,11957.63
715,11929.39
716,11870.4
717,11811.41
718,11784.18
719,11796.52
720,11819.35
721,11820.61
722,11784.12
723,11727.73
724,11673.65
725,11636.69
726,11609.45
727,11580.32
728,11541.79
729,11503.63
730,11480.25
731,11482.36
732,11498.21
733,11507.56
734,11492.46
735,11454.45
736,11405.21
737,11356.3
738,11317.1
739,11295.48
740,11298.53
741,11318.99
742,11336.14
743,11329.38
744,11296.3
745,11257.17
746,11233.36
747,11232.55
748,11239.95
749,11238.81
750,11219.15
751,11185.78
752,11145.43
753,11102.33
754,11053.47
755,10994.54
756,10925.87
757,10865.83
758,10837.16
759,10855.53
760,10899.93
761,10937.46
762,10940.21
763,10914.65
764,10882.01
765,10861.44
766,10852.38
767,10843.37
768,10824.03
769,10800.12
770,10788.83
771,10806.1
772,10841.26
773,10859.69
774,10827.37
775,10746.68
776,10661.11
777,10615.46
778,10622.07
779,10647.54
780,10655.36
781,10629.43
782,10589.49
783,10558.8
784,10550.21
785,10553.56
786,10555.71
787,10548.54
788,10537.85
789,10531.76
790,10533.84
791,10531.67
792,10509.44
793,10457.68
794,10394.51
795,10345.5
796,10329.9
797,10333.01
798,10328.72
799,10296.64
800,10254.87
801,10237.51
802,10272.12
803,10331.12
804,10359.14
805,10307.56
806,10200.16
807,10104.71
808,10084.49
809,10136.94
810,10211.74
811,10259.5
812,10261.83
813,10226.9
814,10164.02
815,10090.13
816,10029.83
817,10007.14
818,10020.12
819,10036.22
820,10021.89
821,9970.211
822,9910.808
823,9875.525
824,9876.298
825,9893.34
826,9904.199
827,9895.024
828,9867.807
829,9826.253
830,9776.813
831,9731.827
832,9704.323
833,9699.853
834,9705.622
835,9706.112
836,9692.205
837,9672.805
838,9659.944
839,9660.919
840,9667.678
841,9669.084
842,9657.639
843,9639.211
844,9622.76
845,9613.862
846,9603.843
847,9580.292
848,9536.357
849,9491.658
850,9473.678
851,9500.937
852,9544.001
853,9557.416
854,9506.229
855,9418.362
856,9345.213
857,9329.764
858,9358.847
859,9396.024
860,9408.813
861,9394.113
862,9362.255
863,9323.411
864,9286.189
865,9258.402
866,9246.392
867,9243.149
868,9234.457
869,9207.848
870,9169.063
871,9134.508
872,9119.416
873,9125.05
874,9143.871
875,9168.202
876,9189.842
877,9200.269
878,9191.805
879,9167.823
880,9139.594
881,9117.937
882,9105.23
883,9097.459
884,9090.646
885,9083.671
886,9077.676
887,9073.612
888,9067.885
889,9053.116
890,9022.758
891,8986.906
892,8970.126
893,8995.524
894,9050.332
895,9089.408
896,9069.006
897,8994.153
898,8915.366
899,8882.651
900,8901.918
901,8936.785
902,8950.427
903,8931.156
904,8891.966
905,8846.717
906,8806.537
907,8779.811
908,8774.231
909,8784.63
910,8792.802
911,8780.753
912,8748.396
913,8713.973
914,8695.746
915,8693.86
916,8689.777
917,8665.104
918,8623.917
919,8593.473
920,8600.678
921,8640.726
922,8676.229
923,8669.891
924,8618.648
925,8554.308
926,8509.116
927,8491.684
928,8486.86
929,8478.932
930,8461.871
931,8439.238
932,8414.982
933,8392.82
934,8376.265
935,8368.692
936,8371.2
937,8382.742
938,8401.938
939,8422.492
940,8433.617
941,8425.016
942,8398.065
943,8364.459
944,8335.676
945,8313.955
946,8293.682
947,8269.572
948,8245.591
949,8233.222
950,8242.902
951,8266.408
952,8281.042
953,8265.704
954,8226.018
955,8187.272
956,8173.136
957,8181.514
958,8192.392
959,8187.381
960,8170.925
961,8162.396
962,8178.854
963,8210.124
964,8229.387
965,8212.871
966,8168.487
967,8122.176
968,8097.329
969,8093.167
970,8096.175
971,8093.977
972,8084.165
973,8069.176
974,8051.892
975,8038.271
976,8035.634
977,8047.877
978,8056.281
979,8032.983
980,7959.233
981,7870.318
982,7821.32
983,7853.231
984,7932.55
985,8001.181
986,8013.622
987,7983.646
988,7942.558
989,7915.852
990,7904.813
991,7904.344
992,7909.479
993,7915.682
994,7918.536
995,7914.764
996,7904.815
997,7889.901
998,7871.009
999,7848.479
1000,7822.536
1001,7794.325
1002,7767.347
1003,7745.447
1004,7730.491
1005,7719.982
1006,7710.834
1007,7700.413
1008,7688.087
1009,7673.816
1010,7658.462
1011,7646.559
1012,7643.534
1013,7652.425
1014,7668.005
1015,7683.269
1016,7692.772
1017,7695.667
1018,7691.958
1019,7682.151
1020,7668.007
1021,7651.498
1022,7637.02
1023,7634.259
1024,7653.441
1025,7692.197
1026,7724.9
1027,7723.859
1028,7684.485
1029,7638.323
1030,7619.343
1031,7635.056
1032,7658.035
1033,7659.43
1034,7636.075
1035,7613.343
1036,7616.584
1037,7641.779
1038,7657.61
1039,7634.272
1040,7579.164
1041,7528.404
1042,7515.583
1043,7537.811
1044,7569.03
1045,7585.485
1046,7586.368
1047,7582.749
1048,7584.296
1049,7590.598
1050,7597.05
1051,7600.133
1052,7602.145
1053,7607.287
1054,7617.343
1055,7624.107
1056,7616.83
1057,7591.287
1058,7564.064
1059,7555.833
1060,7575.487
1061,7602.863
1062,7613.537
1063,7596.698
1064,7567.647
1065,7544.417
1066,7534.587
1067,7530.122
1068,7522.027
1069,7510.801
1070,7507.96
1071,7524.983
1072,7560.919
1073,7603.633
1074,7641.47
1075,7673.856
1076,7707.879
1077,7749.786
1078,7797.082
1079,7842.678
1080,7881.699
1081,7923.557
1082,7983.25
1083,8068.234
1084,8151.484
1085,8196.156
1086,8180.731
1087,8134.09
1088,8095.368
1089,8088.379
1090,8100.574
1091,8114.2
1092,8117.437
1093,8108.716
1094,8087.466
1095,8052.391
1096,8001.261
1097,7932.4
1098,7856.449
1099,7795.46
1100,7769.598
1101,7770.702
1102,7771.558
1103,7748.145
1104,7704.595
1105,7658.56
1106,7625.546
1107,7609.2
1108,7609.188
1109,7623.649
1110,7645.143
1111,7664.974
1112,7677.344
1113,7683.589
1114,7686.137
1115,7687.68
1116,7691.366
1117,7700.23
1118,7712.434
1119,7720.342
1120,7716.489
1121,7701.734
1122,7683.835
1123,7669.551
1124,7653.898
1125,7625.218
1126,7574.958
1127,7514.082
1128,7460.984
1129,7429.127
1130,7412.467
1131,7400.15
1132,7382.254
1133,7351.211
1134,7299.973
1135,7232.202
1136,7169.532
1137,7134.624
1138,7130.716
1139,7139.329
1140,7142.056
1141,7137.71
1142,7137.924
1143,7152.634
1144,7175.58
1145,7192.635
1146,7192.479
1147,7177.813
1148,7155.638
1149,7133.011
1150,7117.178
1151,7115.341
1152,7126.597
1153,7134.724
1154,7122.294
1155,7087.725
1156,7048.571
1157,7022.41
1158,7010.088
1159,6999.506
1160,6979.826
1161,6953.134
1162,6927.805
1163,6909.722
1164,6892.889
1165,6867.833
1166,6832.634
1167,6806.354
1168,6811.378
1169,6849.357
1170,6887.113
1171,6889.404
1172,6852.23
1173,6804.015
1174,6772.651
1175,6762.711
1176,6763.871
1177,6766.401
1178,6765.728
1179,6759.245
1180,6745.889
1181,6729.958
1182,6716.877
1183,6707.739
1184,6694.957
1185,6670.349
1186,6640.162
1187,6627.815
1188,6654.987
1189,6706.649
1190,6741.644
1191,6726.012
1192,6678.097
1193,6637.866
1194,6632.633
1195,6643.224
1196,6639.979
1197,6611.522
1198,6583.598
1199,6585.565
1200,6619.519
1201,6655.695
1202,6665.115
1203,6651.071
1204,6638.68
1205,6648.479
1206,6670.45
1207,6683.019
1208,6671.31
1209,6642.048
1210,6606.304
1211,6576.136
1212,6565.315
1213,6586.792
1214,6631.249
1215,6667.519
1216,6667.393
1217,6639.096
1218,6610.78
1219,6604.916
1220,6616.652
1221,6633.225
1222,6644.124
1223,6644.195
1224,6629.291
1225,6603.674
1226,6582.423
1227,6580.061
1228,6594.348
1229,6611.259
1230,6618.729
1231,6618.001
1232,6615.248
1233,6614.627
1234,6614.296
1235,6611.362
1236,6605.864
1237,6602.322
1238,6605.278
1239,6613.406
1240,6620.592
1241,6621.539
1242,6617.586
1243,6612.886
1244,6610.341
1245,6608.713
1246,6605.95
1247,6602.705
1248,6604.076
1249,6615.117
1250,6632.729
1251,6646.854
1252,6648.892
1253,6642.229
1254,6635.44
1255,6633.971
1256,6632.917
1257,6625.359
1258,6611.884
1259,6605.039
1260,6617.427
1261,6645.044
1262,6670.436
1263,6678.572
1264,6672.645
1265,6663.097
1266,6657.064
1267,6651.932
1268,6643.404
1269,6631.689
1270,6623.289
1271,6624.347
1272,6630.198
1273,6628.669
1274,6611.641
1275,6593.058
1276,6594.045
1277,6622.335
1278,6654.268
1279,6662.51
1280,6643.385
1281,6619.627
1282,6612.883
1283,6621.902
1284,6633.181
1285,6637.277
1286,6640.72
1287,6653.773
1288,6679.524
1289,6708.814
1290,6731.703
1291,6745.043
1292,6751.16
1293,6752.161
1294,6747.937
1295,6737.576
1296,6723.061
1297,6713.651
1298,6719.255
1299,6735.807
1300,6743.355
1301,6724.572
1302,6693.236
1303,6679.375
1304,6701.493
1305,6736.786
1306,6753.688
1307,6742.976
1308,6729.412
1309,6738.662
1310,6771.036
1311,6809.363
1312,6837.583
1313,6846.624
1314,6829.565
1315,6792.599
1316,6767.278
1317,6785.835
1318,6840.161
1319,6887.608
1320,6893.2
1321,6874.45
1322,6868.104
1323,6894.221
1324,6933.683
1325,6962.326
1326,6969.816
1327,6959.7
1328,6937.441
1329,6917.676
1330,6918.964
1331,6948.397
1332,6982.289
1333,6992.771
1334,6978.756
1335,6969.001
1336,6988.775
1337,7023.502
1338,7039.894
1339,7018.972
1340,6983.43
1341,6962.881
1342,6968.527
1343,6990.017
1344,7015.536
1345,7031.513
1346,7023.504
1347,6986.146
1348,6940.618
1349,6912.427
1350,6910.227
1351,6923.064
1352,6939.588
1353,6954.205
1354,6964.03
1355,6967.812
1356,6968.821
1357,6971.143
1358,6979.673
1359,7000.191
1360,7035.949
1361,7071.789
1362,7084.571
1363,7065.904
1364,7044.361
1365,7052.716
1366,7089.67
1367,7120.744
1368,7117.585
1369,7097.741
1370,7095.876
1371,7129.144
1372,7177.451
1373,7216.981
1374,7241.858
1375,7260.918
1376,7280.527
1377,7292.903
1378,7286.085
1379,7258.139
1380,7224.226
1381,7200.174
1382,7189.504
1383,7187.711
1384,7191.163
1385,7199.974
1386,7214.922
1387,7229.565
1388,7228.037
1389,7196.755
1390,7146.187
1391,7098.529
1392,7069.605
1393,7058.254
1394,7060.528
1395,7071.634
1396,7085.969
1397,7097.833
1398,7101.278
1399,7090.341
1400,7066.928
1401,7047.045
1402,7046.094
1403,7054.553
1404,7046.628
1405,7008.81
1406,6971.2
1407,6972.256
1408,7013.626
1409,7053.432
1410,7055.32
1411,7038.309
1412,7044.362
1413,7089.483
1414,7134.448
1415,7136.314
1416,7100.929
1417,7070.404
1418,7075.063
1419,7095.874
1420,7102.348
1421,7084.366
1422,7057.598
1423,7037.862
1424,7029.842
1425,7033.414
1426,7048.033
1427,7072.317
1428,7104.008
1429,7130.567
1430,7131.964
1431,7096.62
1432,7044.5
1433,7002.46
1434,6986.083
1435,6997.823
1436,7036.439
1437,7082.364
1438,7109.108
1439,7105.708
1440,7089.767
1441,7080.3
1442,7078.14
1443,7073.063
1444,7063.198
1445,7071.26
1446,7122.261
1447,7197.602
1448,7238.517
1449,7204.125
1450,7142.4
1451,7125.466
1452,7170.309
1453,7219.143
1454,7218.791
1455,7187.615
1456,7174.699
1457,7203.055
1458,7244.042
1459,7265.141
1460,7258.833
1461,7233.193
1462,7201.177
1463,7188.828
1464,7222.217
1465,7284.814
1466,7323.134
1467,7299.562
1468,7246.271
1469,7212.374
1470,7220.632
1471,7262.868
1472,7327.151
1473,7390.483
1474,7426.139
1475,7422.438
1476,7391.103
1477,7346.722
1478,7310.107
1479,7304.911
1480,7334.884
1481,7363.474
1482,7352.856
1483,7304.884
1484,7245.449
1485,7196.715
1486,7170.154
1487,7174.583
1488,7204.412
1489,7243.144
1490,7275.987
1491,7294.748
1492,7293.094
1493,7275.697
1494,7257.348
1495,7249.63
1496,7249.583
1497,7250.95
1498,7256.697
1499,7279.828
1500,7326.324
1501,7365.872
1502,7358.247
1503,7302.762
1504,7248.523
1505,7238.396
1506,7261.432
1507,7288.148
1508,7302.989
1509,7310.297
1510,7315.473
1511,7320.861
1512,7327.639
1513,7338.353
1514,7357.712
1515,7388.301
1516,7416.254
1517,7420.747
1518,7397.023
1519,7367.683
1520,7354.885
1521,7356.445
1522,7359.012
1523,7358.542
1524,7367.771
1525,7397.857
1526,7433
1527,7444.566
1528,7424.506
1529,7402.801
1530,7409.084
1531,7435.802
1532,7457.348
1533,7463.302
1534,7471.517
1535,7499.439
1536,7536.133
1537,7557.024
1538,7551.368
1539,7533.542
1540,7519.38
1541,7515.093
1542,7522.365
1543,7538.684
1544,7554.364
1545,7560.514
1546,7559.338
1547,7557.949
1548,7564.947
1549,7591.249
1550,7643.499
1551,7698.791
1552,7722.741
1553,7706.704
1554,7679.613
1555,7668.615
1556,7672.737
1557,7681.007
1558,7686.42
1559,7687.13
1560,7682.795
1561,7678.869
1562,7682.33
1563,7691.771
1564,7696.348
1565,7688.583
1566,7677.317
1567,7675.042
1568,7680.575
1569,7679.676
1570,7665.073
1571,7655.165
1572,7672.303
1573,7713.859
1574,7757.433
1575,7787.891
1576,7811.567
1577,7836.996
1578,7856.122
1579,7850.357
1580,7817.783
1581,7792.588
1582,7808.425
1583,7854.193
1584,7896.541
1585,7914.896
1586,7910.202
1587,7888.603
1588,7875.619
1589,7903.214
1590,7968.144
1591,8022.858
1592,8030.684
1593,8015.926
1594,8018.127
1595,8042.993
1596,8064.506
1597,8063.114
1598,8043.365
1599,8015.653
1600,8004.7
1601,8044.866
1602,8139.857
1603,8226.596
1604,8242.666
1605,8202.221
1606,8155.561
1607,8128.261
1608,8108.411
1609,8083.827
1610,8056.863
1611,8034.473
1612,8022.059
1613,8023.431
1614,8041.584
1615,8077.025
1616,8128.264
1617,8175.197
1618,8185.035
1619,8147.713
1620,8101.267
1621,8083.772
1622,8088.785
1623,8090.572
1624,8078.615
1625,8062.831
1626,8051.994
1627,8043.773
1628,8033.563
1629,8028.856
1630,8047.3
1631,8091.05
1632,8122.42
1633,8104.168
1634,8057.704
1635,8034.062
1636,8051.678
1637,8079.711
1638,8091.603
1639,8100.572
1640,8129.977
1641,8172.173
1642,8191.933
1643,8168.981
1644,8124.551
1645,8084.906
1646,8061.689
1647,8058.968
1648,8075.34
1649,8101.548
1650,8127.667
1651,8143.745
1652,8140.758
1653,8125.625
1654,8118.198
1655,8128.716
1656,8144.591
1657,8152.407
1658,8155.813
1659,8165.6
1660,8181.439
1661,8189.498
1662,8181.203
1663,8169.174
1664,8169.223
1665,8180.552
1666,8191.756
1667,8194.604
1668,8186.664
1669,8169.204
1670,8159.324
1671,8177.591
1672,8215.401
1673,8238.655
1674,8233.157
1675,8233.486
1676,8272.433
1677,8320.457
1678,8322.896
1679,8273.475
1680,8220.905
1681,8205.746
1682,8234.107
1683,8300.862
1684,8357.425
1685,8332.984
1686,8226.045
1687,8132.078
1688,8128.258
1689,8194.134
1690,8287.455
1691,8381.995
1692,8461.826
1693,8509.878
1694,8507.051
1695,8443.434
1696,8350.816
1697,8271.778
1698,8236.699
1699,8266.717
1700,8347.079
1701,8398.549
1702,8359.448
1703,8287.912
1704,8273.982
1705,8335.093
1706,8431.923
1707,8516.813
1708,8529.378
1709,8429.516
1710,8287.786
1711,8205.563
1712,8216.56
1713,8300.752
1714,8418.584
1715,8496.444
1716,8478.668
1717,8418.112
1718,8396.229
1719,8420.795
1720,8443.683
1721,8438.233
1722,8418.881
1723,8403.501
1724,8405.946
1725,8436.867
1726,8479.694
1727,8499.28
1728,8486.661
1729,8475.477
1730,8492.168
1731,8519.43
1732,8532.162
1733,8536.983
1734,8559.071
1735,8600.221
1736,8630.004
1737,8625.871
1738,8598.236
1739,8563.117
1740,8527.949
1741,8496.104
1742,8474.25
1743,8472.691
1744,8494.603
1745,8524.899
1746,8548.021
1747,8562.885
1748,8573.763
1749,8583.337
1750,8592.905
1751,8600.917
1752,8600.649
1753,8586.7
1754,8561.821
1755,8531.729
1756,8510.115
1757,8515.071
1758,8542.837
1759,8560.822
1760,8551.359
1761,8545.831
1762,8576.881
1763,8624.827
1764,8649.81
1765,8645.505
1766,8635.591
1767,8633.904
1768,8633.725
1769,8627.952
1770,8617.442
1771,8604.017
1772,8578.339
1773,8525.814
1774,8469.044
1775,8474.617
1776,8569.062
1777,8673.589
1778,8709.905
1779,8691.378
1780,8661.434
1781,8647.029
1782,8663.154
1783,8712.585
1784,8780.994
1785,8841.841
1786,8836.702
1787,8721.956
1788,8588.92
1789,8573.244
1790,8654.883
1791,8689.84
1792,8625.024
1793,8556.306
1794,8560.862
1795,8613.164
1796,8669.377
1797,8701.85
1798,8691.234
1799,8644.732
1800,8591.517
1801,8562.994
1802,8592.925
1803,8689.033
1804,8776.503
1805,8780.933
1806,8738.186
1807,8724.099
1808,8746.533
1809,8761.163
1810,8751.59
1811,8743.885
1812,8753.344
1813,8755.981
1814,8730.74
1815,8711.039
1816,8743.481
1817,8804.165
1818,8823.918
1819,8782.108
1820,8717.892
1821,8667.841
1822,8654.55
1823,8689.532
1824,8744.411
1825,8781.454
1826,8776.232
1827,8713.802
1828,8633.395
1829,8623.307
1830,8701.82
1831,8768.883
1832,8754.674
1833,8714.535
1834,8715.756
1835,8758.081
1836,8815.107
1837,8836.658
1838,8760.905
1839,8630.469
1840,8604.062
1841,8734.474
1842,8856.273
1843,8834.959
1844,8733.967
1845,8651.179
1846,8625.029
1847,8667.088
1848,8747.528
1849,8808.27
1850,8808.268
1851,8727.601
1852,8600.55
1853,8566.448
1854,8712.706
1855,8902.422
1856,8974.91
1857,8927.158
1858,8817.65
1859,8715.63
1860,8694.614
1861,8755.578
1862,8822.205
1863,8841.304
1864,8806.935
1865,8734.115
1866,8685.237
1867,8704.729
1868,8701.968
1869,8569.429
1870,8430.205
1871,8512.949
1872,8771.562
1873,8930.894
1874,8878.839
1875,8731.255
1876,8605.225
1877,8585.872
1878,8712.07
1879,8874.438
1880,8952.213
1881,8949.542
1882,8912.729
1883,8858.01
1884,8786.092
1885,8731.613
1886,8757.662
1887,8839.021
1888,8828.936
1889,8683.077
1890,8591.941
1891,8688.738
1892,8816.151
1893,8801.44
1894,8712.721
1895,8682.96
1896,8714.549
1897,8745.281
1898,8748.41
1899,8725.635
1900,8699.986
1901,8717.481
1902,8783.926
1903,8835.2
1904,8827.725
1905,8787.067
1906,8740.344
1907,8679.112
1908,8595.193
1909,8532.156
1910,8543.538
1911,8599.397
1912,8629.107
1913,8629.789
1914,8649.945
1915,8691.49
1916,8703.953
1917,8684.95
1918,8711.764
1919,8808.613
1920,8864.65
1921,8802.268
1922,8712.609
1923,8694.097
1924,8715.932
1925,8720.663
1926,8732.387
1927,8798.565
1928,8848.371
1929,8752.978
1930,8590.253
1931,8599.515
1932,8781.571
1933,8869.289
1934,8769.245
1935,8671.423
1936,8685.921
1937,8709.893
1938,8665.839
1939,8621.751
1940,8640.468
1941,8665.427
1942,8628.647
1943,8557.656
1944,8506.218
1945,8484.772
1946,8485.055
1947,8507.617
1948,8555.886
1949,8595.576
1950,8565.767
1951,8476.241
1952,8408.313
1953,8405.996
1954,8459.712
1955,8516.584
1956,8457.846
1957,8279.712
1958,8240.584
1959,8474.761
1960,8673.277
1961,8578.646
1962,8400.238
1963,8386.356
1964,8470.262
1965,8515.988
1966,8527.512
1967,8549.028
1968,8529.805
1969,8392.719
1970,8250.053
1971,8303.853
1972,8462.122
1973,8437.442
1974,8269.956
1975,8280.396
1976,8492.594
1977,8609.204
1978,8539.728
1979,8477.374
1980,8499.484
1981,8476.829
1982,8363.204
1983,8297.896
1984,8356.711
1985,8430.896
1986,8431.991
1987,8390.511
1988,8345.337
1989,8300.638
1990,8261.65
1991,8262.799
1992,8321.059
1993,8345.712
1994,8252.84
1995,8150.646
1996,8179.088
1997,8288.136
1998,8362.993
1999,8341.521
2000,8202.271
2001,8072.481
2002,8126.08
2003,8265.707
2004,8262.984
2005,8151.383
2006,8119.29
2007,8183.026
2008,8238.951
2009,8249.722
2010,8233.118
2011,8220.158
2012,8249.08
2013,8293.896
2014,8269.753
2015,8161.581
2016,8029.335
2017,7925.12
2018,7887.039
2019,7915.505
2020,7965.989
2021,8002.752
2022,8005.618
2023,7972.548
2024,7925.48
2025,7886.32
2026,7873.687
2027,7874.432
2028,7826.844
2029,7737.338
2030,7730.619
2031,7819.733
2032,7807.243
2033,7653.843
2034,7640.406
2035,7857.388
2036,7980.228
2037,7849.648
2038,7708.865
2039,7730.152
2040,7857.333
2041,7985.376
2042,7965.877
2043,7778.349
2044,7669.178
2045,7743.67
2046,7757.591
2047,7597.786
2048,7501.002
2049,7588.735
2050,7666.2
2051,7619.799
2052,7572.225
2053,7577.994
2054,7504.968
2055,7332.351
2056,7291.361
2057,7447.691
2058,7509.379
2059,7369.484
2060,7319.958
2061,7458.654
2062,7480.413
2063,7291.743
2064,7210.153
2065,7350.625
2066,7453.598
2067,7403.31
2068,7343.649
2069,7332.831
2070,7282.34
2071,7179.694
2072,7123.996
2073,7152.623
2074,7218.612
2075,7271.417
2076,7264.015
2077,7194.085
2078,7104.694
2079,7020.26
2080,6946.299
2081,6903.327
2082,6921.563
2083,6970.078
2084,6975.047
2085,6936.061
2086,6901.372
2087,6871.051
2088,6818.856
2089,6766.481
2090,6755.457
2091,6764.703
2092,6749.389
2093,6719.232
2094,6706.231
2095,6732.452
2096,6793.943
2097,6770.798
2098,6578.987
2099,6461.576
2100,6623.236
2101,6783.116
2102,6685.422
2103,6514.347
2104,6460.456
2105,6500.592
2106,6562.94
2107,6546.363
2108,6439.263
2109,6402.219
2110,6475.148
2111,6483.618
2112,6360.866
2113,6204.813
2114,6128.186
2115,6238.271
2116,6461.885
2117,6577.271
2118,6542.081
2119,6446.26
2120,6340.261
2121,6249.547
2122,6203.279
2123,6220.09
2124,6240.363
2125,6197.079
2126,6134.522
2127,6110.113
2128,6103.226
2129,6095.689
2130,6129.732
2131,6193.013
2132,6127.105
2133,5924.365
2134,5872.201
2135,6009.443
2136,6002.623
2137,5792.874
2138,5635.741
2139,5637.653
2140,5755.278
2141,5797.654
2142,5542.24
2143,5256.517
2144,5341.626
2145,5579.802
2146,5636.918
2147,5644.793
2148,5754.417
2149,5791.668
2150,5651.667
2151,5527.212
2152,5520.386
2153,5515.984
2154,5481.641
2155,5506.367
2156,5553.645
2157,5481.683
2158,5350.726
2159,5331.492
2160,5366.827
2161,5326.629
2162,5296.652
2163,5368.458
2164,5371.488
2165,5196.656
2166,5060.99
2167,5066.7
2168,5010.569
2169,4880.617
2170,4941.809
2171,5135.813
2172,5118.338
2173,4915.088
2174,4773.079
2175,4735
2176,4736.599
2177,4650.276
2178,4417.615
2179,4261.916
2180,4356.854
2181,4647.097
2182,4912.709
2183,4762.107
2184,4322.254
2185,4195.644
2186,4388.953
2187,4536.498
2188,4565.806
2189,4543.527
2190,4562.326
2191,4626.055
2192,4462.642
2193,4053.198
2194,3932.924
2195,4241.071
2196,4564.487
2197,4623.997
2198,4319.448
2199,3936.538
2200,3870.194
2201,4030.96
2202,4181.379
2203,4125.947
2204,3883.474
2205,3871.239
2206,4067.713
2207,3881.32
2208,3444.536
2209,3413.009
2210,3654.401
2211,3725.333
2212,3660.448
2213,3598.84
2214,3554.85
2215,3536.646
2216,3577.828
2217,3637.947
2218,3606.259
2219,3524.051
2220,3514.705
2221,3559.177
2222,3599.244
2223,3644.659
2224,3663.448
2225,3507.503
2226,3225.906
2227,3114.274
2228,3140.602
2229,3058.39
2230,2979.586
2231,3073.948
2232,3082.977
2233,2869.098
2234,2802.918
2235,2946.281
2236,2896.856
2237,2691.28
2238,2675.696
2239,2825.407
2240,2952.689
2241,2885.163
2242,2660.875
2243,2730.608
2244,3026.694
2245,2880.833
2246,2509.305
2247,2589.4
2248,2839.164
2249,2807.785
2250,2641.448
2251,2519.48
2252,2479.228
2253,2499.723
2254,2521.935
2255,2521.722
2256,2490.929
2257,2409.443
2258,2295.033
2259,2252.464
2260,2253.748
2261,2126.09
2262,2025.529
2263,2215.836
2264,2344.987
2265,2136.736
2266,2080.042
2267,2252.892
2268,2034.939
2269,1675.118
2270,1926.729
2271,2341.365
2272,2280.739
2273,1965.089
2274,1681.555
2275,1564.887
2276,1633.657
2277,1805.519
2278,1878.32
2279,1746.882
2280,1745.964
2281,1921.415
2282,1790.068
2283,1450.496
2284,1392.209
2285,1493.99
2286,1496.954
2287,1437.039
2288,1387.568
2289,1392.733
2290,1393.368
2291,1300.143
2292,1243.185
2293,1315.05
2294,1341.156
2295,1282.672
2296,1286.576
2297,1288.865
2298,1172.161
2299,1134.176
2300,1288.108
