400,15793.74
401,15789.06
402,15801.31
403,15815.06
404,15813.02
405,15783.82
406,15743.45
407,15715.77
408,15722.71
409,15759.27
410,15799.73
411,15818.08
412,15802.08
413,15766.04
414,15727.24
415,15700.33
416,15686.38
417,15681.95
418,15683.9
419,15693.87
420,15717.54
421,15760.64
422,15820.49
423,15876.71
424,15906.79
425,15893.86
426,15852.5
427,15808.35
428,15785.91
429,15790.39
430,15810.03
431,15832.6
432,15847.36
433,15846.75
434,15823.66
435,15773.26
436,15703.38
437,15626.28
438,15554.15
439,15499.03
440,15472.82
441,15487.24
442,15539.69
443,15598.46
444,15628.44
445,15603.18
446,15540.66
447,15473.31
448,15431.71
449,15420.09
450,15421.97
451,15420.45
452,15405.4
453,15378.95
454,15344.5
455,15304.2
456,15254.59
457,15190.64
458,15109.07
459,15028.24
460,14981.19
461,15000.45
462,15083.55
463,15174.42
464,15212.78
465,15159.68
466,15053.49
467,14950.03
468,14899.4
469,14900.2
470,14922.78
471,14937.76
472,14929.42
473,14898.64
474,14847.31
475,14780.6
476,14712.82
477,14659.75
478,14634.85
479,14636.26
480,14655.76
481,14685.25
482,14718.43
483,14750.61
484,14777.16
485,14790.55
486,14777.42
487,14723.78
488,14624.12
489,14511.9
490,14431.63
491,14422.84
492,14468.96
493,14517.22
494,14515.42
495,14450.67
496,14363.58
497,14298.38
498,14282.56
499,14294.19
500,14302.33
501,14280.99
502,14237.84
503,14194.75
504,14172.36
505,14169.27
506,14164.44
507,14136.39
508,14079.58
509,14017.78
510,13977.78
511,13977.67
512,14000.82
513,14021.89
514,14018.5
515,13994.82
516,13969.55
517,13960.75
518,13967.98
519,13970.27
520,13945.73
521,13885.05
522,13807.11
523,13734.54
524,13685.8
525,13659.2
526,13646.92
527,13640.94
528,13630.13
529,13601.5
530,13542.57
531,13458.09
532,13374.27
533,13318.45
534,13304.95
535,13315.87
536,13328.45
537,13323.37
538,13298.71
539,13258.23
540,13206.28
541,13154.1
542,13117.4
543,13111.38
544,13131.03
545,13145.99
546,13124.5
547,13053.99
548,12968.73
549,12909.92
550,12907.96
551,12939.98
552,12966.46
553,12951.88
554,12902.4
555,12849.82
556,12825.36
557,12834.98
558,12855.61
559,12862.77
560,12845.06
561,12819.33
562,12806.06
563,12817.8
564,12833.18
565,12821.87
566,12758.44
567,12659.83
568,12564.94
569,12511.31
570,12506.73
571,12530.64
572,12561.49
573,12582.01
574,12582.3
575,12553.23
576,12492.87
577,12422.83
578,12369.41
579,12354.29
580,12370.24
581,12398.68
582,12421.51
583,12425.95
584,12403.09
585,12344.7
586,12262.23
587,12192.09
588,12171.98
589,12214.85
590,12277.71
591,12310.12
592,12275.69
593,12196.46
594,12109.78
595,12049.45
596,12022.44
597,12022.71
598,12043.8
599,12072.77
600,12091.18
601,12080.88
602,12039.35
603,11986.7
604,11944.62
605,11925.66
606,11919.4
607,11911.9
608,11893.38
609,11872.68
610,11863.96
611,11878.41
612,11902.82
613,11911.78
614,11881.73
615,11820.81
616,11764.11
617,11746.69
618,11771.47
619,11796.07
620,11774.98
621,11690.17
622,11588.77
623,11527.18
624,11543.81
625,11603.05
626,11650.27
627,11638.94
628,11580.66
629,11512.93
630,11471.12
631,11461.08
632,11466.9
633,11472.46
634,11469.6
635,11459.52
636,11444
637,11423.93
638,11398.54
639,11366.92
640,11330.95
641,11301.58
642,11291.55
643,11308.64
644,11334.15
645,11340.48
646,11303.93
647,11236.22
648,11168.51
649,11130.42
650,11123.13
651,11123.17
652,11106.74
653,11066.76
654,11018.66
655,10979.35
656,10958.02
657,10947.6
658,10939.01
659,10926.12
660,10912.92
661,10905.53
662,10908.43
663,10917.2
664,10924.33
665,10923.18
666,10914.86
667,10904.68
668,10897.53
669,10890.89
670,10876.13
671,10844.75
672,10797.13
673,10744.75
674,10699.68
675,10669.72
676,10654.77
677,10653.84
678,10663.52
679,10673.29
680,10671.49
681,10650.08
682,10617.51
683,10586.75
684,10569.09
685,10564.08
686,10566.22
687,10569.72
688,10565.35
689,10541.69
690,10488.38
691,10416.99
692,10359.45
693,10347.64
694,10383.56
695,10428.91
696,10442.89
697,10406.3
698,10342.15
699,10278.22
700,10236.18
701,10220.22
702,10231.34
703,10266.59
704,10305.75
705,10324.03
706,10302.03
707,10254.26
708,10208.69
709,10190.85
710,10203.17
711,10234.96
712,10275.16
713,10309.09
714,10319.15
715,10288.52
716,10221.86
717,10147.78
718,10095.73
719,10077.92
720,10079.99
721,10085.37
722,10082.64
723,10071.33
724,10052.42
725,10027.24
726,9998.239
727,9968.069
728,9939.292
729,9914.094
730,9894.557
731,9882.217
732,9875.288
733,9870.727
734,9865.745
735,9859.681
736,9852.979
737,9846.017
738,9838.171
739,9828.105
740,9814.598
741,9798.882
742,9784.497
743,9774.901
744,9768.154
745,9755.603
746,9728.331
747,9685.452
748,9639.252
749,9603.153
750,9584.772
751,9579.099
752,9579.485
753,9580.682
754,9581.451
755,9581.291
756,9579.294
757,9572.972
758,9559.468
759,9536.52
760,9504.979
761,9466.711
762,9424.707
763,9389.988
764,9376.997
765,9397.286
766,9435.109
767,9459.583
768,9442.258
769,9387.508
770,9323.015
771,9275.813
772,9253.544
773,9246.412
774,9244.138
775,9238.875
776,9225.531
777,9199.366
778,9164.673
779,9138.486
780,9138.561
781,9167.751
782,9202.655
783,9217.368
784,9201.104
785,9176.387
786,9170.074
787,9194.779
788,9223.771
789,9223.687
790,9174.621
791,9103.254
792,9046.27
793,9031.326
794,9047.18
795,9072.031
796,9086.818
797,9086.964
798,9072.805
799,9045.691
800,9013.826
801,8988.242
802,8978.626
803,8983.47
804,8995.601
805,9007.812
806,9012.563
807,9002.14
808,8969.67
809,8919.463
810,8863.923
811,8815.142
812,8777.483
813,8748.68
814,8726.285
815,8708.456
816,8693.957
817,8681.626
818,8671.725
819,8666.179
820,8666.93
821,8672.358
822,8675.966
823,8670.979
824,8654.102
825,8627.555
826,8594.067
827,8558.239
828,8528.144
829,8512.163
830,8512.82
831,8520.126
832,8522.549
833,8513.372
834,8497.707
835,8482.428
836,8470.851
837,8456.242
838,8430.132
839,8390.587
840,8356.927
841,8352.699
842,8390.082
843,8439.112
844,8460.157
845,8425.693
846,8358.971
847,8296.604
848,8267.865
849,8267.479
850,8279.844
851,8291.106
852,8296.552
853,8294.545
854,8283.997
855,8267.083
856,8247.193
857,8227.347
858,8208.115
859,8189.058
860,8169.876
861,8151.396
862,8134.954
863,8121.918
864,8113.941
865,8112.815
866,8119.656
867,8129.384
868,8133.56
869,8124.846
870,8107.176
871,8091.084
872,8086.092
873,8089.784
874,8092.244
875,8084.229
876,8065.808
877,8043.317
878,8022.867
879,8006.328
880,7992.528
881,7980.236
882,7968.202
883,7955.164
884,7940.137
885,7926.419
886,7920.721
887,7929.241
888,7948.369
889,7966.301
890,7971.567
891,7962.32
892,7945.093
893,7926.555
894,7911.06
895,7900.869
896,7898
897,7901.256
898,7906.436
899,7909.391
900,7909.28
901,7908.436
902,7909.049
903,7907.603
904,7894.966
905,7862.455
906,7816.341
907,7777.84
908,7767.877
909,7786.791
910,7814.032
911,7828.843
912,7825.967
913,7816.031
914,7809.988
915,7809.877
916,7808.565
917,7798.664
918,7776.162
919,7740.532
920,7691.735
921,7637.821
922,7595.136
923,7579.506
924,7586.544
925,7591.286
926,7569.077
927,7521.965
928,7478.856
929,7468.54
930,7492.833
931,7526.888
932,7545.52
933,7539.026
934,7512.695
935,7472.597
936,7428.647
937,7394.399
938,7382.829
939,7393.783
940,7415.103
941,7434.426
942,7443.146
943,7435.979
944,7408.422
945,7367.342
946,7329.272
947,7309.986
948,7308.912
949,7312.163
950,7306.432
951,7292.349
952,7281.345
953,7284.272
954,7300.387
955,7320.407
956,7335.159
957,7339.11
958,7329.255
959,7303.478
960,7269.487
961,7241.412
962,7231.868
963,7236.379
964,7240.028
965,7229.77
966,7212.179
967,7204.996
968,7222.924
969,7252.674
970,7266.206
971,7240.395
972,7192.637
973,7159.995
974,7173.18
975,7216.003
976,7251.402
977,7248.144
978,7213.581
979,7170.728
980,7139.715
981,7123.637
982,7119.311
983,7123.541
984,7133.056
985,7144.574
986,7154.617
987,7158.746
988,7152.25
989,7132.337
990,7104.278
991,7075.464
992,7052.189
993,7036.721
994,7030.385
995,7033.209
996,7040.936
997,7048.447
998,7050.959
999,7044.626
1000,7025.79
1001,6994.249
1002,6958.548
1003,6928.561
1004,6911.29
1005,6907.386
1006,6916.65
1007,6937.107
1008,6958.58
1009,6968.547
1010,6958.65
1011,6937.075
1012,6916.137
1013,6905.063
1014,6902.483
1015,6904.73
1016,6908.407
1017,6910.859
1018,6909.586
1019,6903.187
1020,6893.063
1021,6881.055
1022,6869.583
1023,6862.333
1024,6863.112
1025,6872.111
1026,6882.848
1027,6888.227
1028,6886.6
1029,6884.841
1030,6890.374
1031,6903.482
1032,6915.017
1033,6915.421
1034,6901.312
1035,6876.156
1036,6844.08
1037,6815.445
1038,6806.406
1039,6831.369
1040,6875.61
1041,6901.93
1042,6876.945
1043,6816.431
1044,6767.389
1045,6771.106
1046,6815.165
1047,6859.372
1048,6869.673
1049,6854.854
1050,6841.516
1051,6850.004
1052,6867.509
1053,6870.304
1054,6843.331
1055,6807.149
1056,6791.45
1057,6813.043
1058,6847.732
1059,6863.243
1060,6842.561
1061,6806.343
1062,6780.803
1063,6779.28
1064,6790.409
1065,6800.17
1066,6801.3
1067,6796.617
1068,6789.863
1069,6787.822
1070,6800.826
1071,6838.366
1072,6890.284
1073,6928.726
1074,6928.06
1075,6898.701
1076,6876.009
1077,6891.484
1078,6938.267
1079,6989.364
1080,7021.731
1081,7038.341
1082,7052.343
1083,7074.474
1084,7104.393
1085,7138.594
1086,7172.437
1087,7197.517
1088,7204.7
1089,7191.226
1090,7169.519
1091,7154.06
1092,7149.12
1093,7141.295
1094,7115.826
1095,7072.368
1096,7028.843
1097,7003.402
1098,6995.609
1099,6987.791
1100,6963.301
1101,6925.932
1102,6893.227
1103,6880.555
1104,6883.969
1105,6890.253
1106,6888.171
1107,6877.363
1108,6861.104
1109,6844.206
1110,6837.069
1111,6851.325
1112,6888.422
1113,6924.575
1114,6932.445
1115,6904.857
1116,6869.077
1117,6855.01
1118,6870.247
1119,6895.835
1120,6912.107
1121,6912.854
1122,6903.022
1123,6887.4
1124,6866.076
1125,6836.458
1126,6798.187
1127,6764.811
1128,6755.158
1129,6779.027
1130,6810.472
1131,6814.779
1132,6772.797
1133,6705.08
1134,6638.286
1135,6589.805
1136,6561.481
1137,6553.477
1138,6560.673
1139,6572.027
1140,6576.739
1141,6571.71
1142,6559.584
1143,6543.744
1144,6532.497
1145,6536.547
1146,6562.028
1147,6592.577
1148,6604.946
1149,6586.698
1150,6558.014
1151,6545.042
1152,6557.461
1153,6573.834
1154,6569.878
1155,6540.913
1156,6505.922
1157,6484.237
1158,6479.211
1159,6481.849
1160,6483.358
1161,6479.177
1162,6466.804
1163,6445.87
1164,6425.94
1165,6419.499
1166,6432.547
1167,6453.097
1168,6466.193
1169,6466.345
1170,6463.96
1171,6470.498
1172,6485.992
1173,6498.623
1174,6497.058
1175,6481.99
1176,6461.784
1177,6444.058
1178,6431.064
1179,6423.012
1180,6419.156
1181,6415.422
1182,6407.055
1183,6393.254
1184,6381.17
1185,6378.611
1186,6384.241
1187,6385.819
1188,6371.549
1189,6343.932
1190,6315.652
1191,6298.257
1192,6294.158
1193,6301.987
1194,6318.599
1195,6334.404
1196,6338.375
1197,6325.376
1198,6302.213
1199,6277.075
1200,6256.162
1201,6243.344
1202,6241.789
1203,6247.5
1204,6251.64
1205,6247.581
1206,6242.78
1207,6250.019
1208,6275.397
1209,6303.505
1210,6314.772
1211,6302.845
1212,6284.428
1213,6277.715
1214,6282.218
1215,6279.118
1216,6252.704
1217,6223.694
1218,6232.73
1219,6305.57
1220,6397.993
1221,6445.602
1222,6416.496
1223,6356.332
1224,6321.09
1225,6328.28
1226,6345.947
1227,6341.348
1228,6314.293
1229,6287.499
1230,6279.989
1231,6285.74
1232,6289.44
1233,6281.433
1234,6268.828
1235,6261.709
1236,6263.131
1237,6265.402
1238,6260.302
1239,6245.818
1240,6224.999
1241,6201.646
1242,6183.767
1243,6181.149
1244,6198.256
1245,6221.968
1246,6235.701
1247,6234.33
1248,6231.563
1249,6242.19
1250,6268.89
1251,6304.016
1252,6339.04
1253,6361.563
1254,6357.502
1255,6322.053
1256,6280.878
1257,6265.595
1258,6287.069
1259,6323.046
1260,6349.321
1261,6358.477
1262,6356.672
1263,6350.296
1264,6344.661
1265,6344.656
1266,6352.521
1267,6362.761
1268,6368.572
1269,6368.506
1270,6368.594
1271,6374.77
1272,6384.388
1273,6388.841
1274,6381.81
1275,6369.612
1276,6362.69
1277,6367.568
1278,6381.585
1279,6400.8
1280,6422.315
1281,6444.405
1282,6464.667
1283,6474.003
1284,6459.727
1285,6417.944
1286,6378.47
1287,6378.836
1288,6427.316
1289,6482.299
1290,6499.86
1291,6478.019
1292,6448.59
1293,6439.132
1294,6446.007
1295,6454.125
1296,6454.689
1297,6454.725
1298,6463.325
1299,6478.511
1300,6485.718
1301,6472.232
1302,6447.942
1303,6434.548
1304,6446.273
1305,6470.516
1306,6488.9
1307,6492.937
1308,6489.17
1309,6485.174
1310,6485.438
1311,6492.326
1312,6507.133
1313,6526.328
1314,6544.952
1315,6559.042
1316,6566.557
1317,6565.859
1318,6558.506
1319,6548.797
1320,6541.594
1321,6544.525
1322,6566.206
1323,6605.989
1324,6641.546
1325,6648.603
1326,6630.626
1327,6618.929
1328,6639.974
1329,6677.271
1330,6695.93
1331,6678.208
1332,6652.493
1333,6653.947
1334,6691.736
1335,6746.062
1336,6796.837
1337,6833.906
1338,6851.762
1339,6847.793
1340,6827.68
1341,6798.643
1342,6769.027
1343,6748.502
1344,6745.769
1345,6760.909
1346,6789.817
1347,6824.092
1348,6842.923
1349,6824.108
1350,6773.581
1351,6729.983
1352,6728.365
1353,6760.393
1354,6797.238
1355,6817.172
1356,6818.706
1357,6804.136
1358,6783.725
1359,6776.447
1360,6797.918
1361,6836.395
1362,6868.266
1363,6878.429
1364,6873.261
1365,6862.428
1366,6854.99
1367,6859.418
1368,6881.401
1369,6909.836
1370,6927.365
1371,6927.099
1372,6924.39
1373,6936.234
1374,6959.274
1375,6973.447
1376,6965.292
1377,6955.877
1378,6976.435
1379,7030.958
1380,7077.001
1381,7072.165
1382,7029.388
1383,6997.753
1384,7010.273
1385,7038.56
1386,7040.852
1387,7005.601
1388,6960.649
1389,6933.608
1390,6928.003
1391,6935.638
1392,6947.96
1393,6955.76
1394,6950.12
1395,6931.069
1396,6907.134
1397,6887.218
1398,6880.32
1399,6895.337
1400,6927.072
1401,6945.091
1402,6919.997
1403,6866.582
1404,6828.49
1405,6835.585
1406,6868.06
1407,6895.859
1408,6906.524
1409,6908.402
1410,6909.434
1411,6906.465
1412,6891.771
1413,6866.167
1414,6848.605
1415,6858.882
1416,6895.199
1417,6939.706
1418,6976.416
1419,6998.241
1420,7000.538
1421,6990.21
1422,6988.77
1423,7013.733
1424,7047.114
1425,7055.602
1426,7026.528
1427,6991.486
1428,6985.394
1429,7009.261
1430,7039.477
1431,7056.643
1432,7058.939
1433,7048.678
1434,7032.146
1435,7020.251
1436,7021.951
1437,7032.283
1438,7040.991
1439,7043.226
1440,7044.12
1441,7049.405
1442,7059.766
1443,7072.808
1444,7086.7
1445,7101.353
1446,7116.76
1447,7128.305
1448,7127.116
1449,7108.455
1450,7087.176
1451,7083.447
1452,7104.199
1453,7138.398
1454,7172.977
1455,7189.792
1456,7168.64
1457,7111.86
1458,7066.158
1459,7078.067
1460,7132.949
1461,7178.021
1462,7180.075
1463,7163.392
1464,7160.895
1465,7177.402
1466,7193.36
1467,7193.184
1468,7180.844
1469,7165.158
1470,7151.404
1471,7140.702
1472,7135.148
1473,7143.667
1474,7177.349
1475,7231.247
1476,7275.515
1477,7282.685
1478,7261.389
1479,7237.19
1480,7226.565
1481,7227.332
1482,7235.41
1483,7250.509
1484,7274.621
1485,7301.896
1486,7306.178
1487,7261.44
1488,7191.994
1489,7160.245
1490,7203.448
1491,7273.485
1492,7307.205
1493,7290.891
1494,7256.226
1495,7230.422
1496,7215.639
1497,7207.864
1498,7205.616
1499,7210.167
1500,7221.559
1501,7233.258
1502,7236.928
1503,7231.058
1504,7222.739
1505,7218.358
1506,7217.111
1507,7215.787
1508,7216.424
1509,7228.531
1510,7259.371
1511,7298.048
1512,7326.624
1513,7337.25
1514,7337.993
1515,7337.183
1516,7334.928
1517,7327.81
1518,7315.547
1519,7303.219
1520,7296.417
1521,7300.605
1522,7321.105
1523,7354.108
1524,7379.504
1525,7379.095
1526,7364.279
1527,7360.589
1528,7378.969
1529,7403.303
1530,7416.323
1531,7415.596
1532,7405.981
1533,7396.499
1534,7403.704
1535,7441.508
1536,7495.436
1537,7537.307
1538,7547.651
1539,7522.947
1540,7465.306
1541,7407.51
1542,7396.353
1543,7444.454
1544,7505.457
1545,7533.519
1546,7529.892
1547,7516.485
1548,7511.725
1549,7528.252
1550,7574.833
1551,7637.903
1552,7694.914
1553,7726.403
1554,7717.492
1555,7661.129
1556,7593.647
1557,7565.985
1558,7586.614
1559,7608.938
1560,7596.966
1561,7586.42
1562,7633.157
1563,7727.796
1564,7787.526
1565,7753.862
1566,7687.341
1567,7676.148
1568,7730.64
1569,7786.825
1570,7798.461
1571,7790.7
1572,7801.697
1573,7833.297
1574,7858.619
1575,7861.13
1576,7854.867
1577,7857.768
1578,7872.609
1579,7892.504
1580,7914.31
1581,7943.252
1582,7983.896
1583,8026.003
1584,8052.01
1585,8052.15
1586,8029.69
1587,7993.361
1588,7977.638
1589,8025.342
1590,8124.669
1591,8195.101
1592,8174.982
1593,8106.196
1594,8057.412
1595,8058.493
1596,8102.918
1597,8171.895
1598,8213.056
1599,8174.51
1600,8094.121
1601,8070.649
1602,8150.151
1603,8261.749
1604,8327.646
1605,8338.751
1606,8318.693
1607,8288.019
1608,8262.305
1609,8255.843
1610,8278.003
1611,8335.78
1612,8416.175
1613,8485.656
1614,8520.951
1615,8535.855
1616,8549.688
1617,8554.848
1618,8525.388
1619,8460.053
1620,8409.947
1621,8421.823
1622,8461.908
1623,8462.01
1624,8403.816
1625,8335.812
1626,8299.211
1627,8283.521
1628,8265.417
1629,8239.65
1630,8216.189
1631,8200.229
1632,8183.721
1633,8159.195
1634,8142.183
1635,8159.49
1636,8205.031
1637,8223.333
1638,8175.2
1639,8118.304
1640,8134.019
1641,8207.685
1642,8239.158
1643,8176.296
1644,8099.641
1645,8098.106
1646,8146.758
1647,8163.449
1648,8126.681
1649,8103.644
1650,8147.103
1651,8214.805
1652,8241.664
1653,8219.448
1654,8186.133
1655,8170.671
1656,8178.225
1657,8207.464
1658,8234.048
1659,8224.529
1660,8180.163
1661,8144.305
1662,8148.47
1663,8173.866
1664,8193.09
1665,8205.998
1666,8229.72
1667,8266.821
1668,8294.339
1669,8292.872
1670,8274.251
1671,8259.415
1672,8254.809
1673,8254.188
1674,8256.986
1675,8276.95
1676,8323.429
1677,8360.414
1678,8334.571
1679,8256.785
1680,8210.832
1681,8246.945
1682,8300.341
1683,8294.181
1684,8245.346
1685,8220.647
1686,8242.458
1687,8270.407
1688,8272.441
1689,8266.014
1690,8278.035
1691,8308.489
1692,8339.92
1693,8355.19
1694,8338.232
1695,8283.398
1696,8230.802
1697,8229.286
1698,8271.334
1699,8308.511
1700,8317.653
1701,8323.116
1702,8345.734
1703,8364.506
1704,8348.379
1705,8308.142
1706,8287.08
1707,8306.885
1708,8346.345
1709,8380.893
1710,8393.721
1711,8372.292
1712,8333.583
1713,8317.757
1714,8341.119
1715,8373.416
1716,8387.658
1717,8399.083
1718,8433.478
1719,8479.935
1720,8499.843
1721,8479.396
1722,8450.539
1723,8442.303
1724,8448.512
1725,8454.462
1726,8464.507
1727,8495.855
1728,8539.365
1729,8543.282
1730,8475.635
1731,8397.708
1732,8385.375
1733,8424.058
1734,8445.69
1735,8422.958
1736,8385.191
1737,8366.194
1738,8400.743
1739,8511.621
1740,8620.75
1741,8605.084
1742,8474.064
1743,8383.366
1744,8424.39
1745,8508.916
1746,8539.363
1747,8530.464
1748,8536.314
1749,8559.456
1750,8559
1751,8523.479
1752,8498.424
1753,8519.749
1754,8554.895
1755,8557.045
1756,8526.117
1757,8490.687
1758,8474.578
1759,8494.737
1760,8553.217
1761,8610.258
1762,8626.31
1763,8615.588
1764,8612.991
1765,8618.273
1766,8599.871
1767,8550.984
1768,8513.429
1769,8519.822
1770,8541.386
1771,8538.031
1772,8518.218
1773,8517.561
1774,8545.633
1775,8580.784
1776,8603.303
1777,8602.877
1778,8576.172
1779,8550.441
1780,8560.075
1781,8594.271
1782,8610.509
1783,8594.43
1784,8572.957
1785,8564.661
1786,8553.916
1787,8525.307
1788,8505.718
1789,8535.188
1790,8593.455
1791,8612.533
1792,8577.453
1793,8558.999
1794,8610.539
1795,8704.883
1796,8796.188
1797,8822.203
1798,8721.127
1799,8556.711
1800,8494.688
1801,8580.638
1802,8664.895
1803,8639.204
1804,8580.671
1805,8585.511
1806,8635.729
1807,8670.369
1808,8674.139
1809,8667.049
1810,8659.367
1811,8645.925
1812,8625.392
1813,8610.431
1814,8612.795
1815,8625.351
1816,8635.086
1817,8637.5
1818,8633.601
1819,8620.386
1820,8589.946
1821,8546.637
1822,8522.866
1823,8544.167
1824,8589.654
1825,8628.304
1826,8650.568
1827,8657.67
1828,8646.533
1829,8610.33
1830,8562.8
1831,8551.692
1832,8604.473
1833,8677.542
1834,8721.006
1835,8726.438
1836,8700.485
1837,8653.514
1838,8598.597
1839,8556.78
1840,8557.811
1841,8611.474
1842,8687.772
1843,8753.318
1844,8779.271
1845,8743.089
1846,8657.464
1847,8552.377
1848,8497.955
1849,8587.934
1850,8780.139
1851,8873.337
1852,8779.375
1853,8653.089
1854,8625.592
1855,8644.822
1856,8631.921
1857,8589.339
1858,8550.795
1859,8550.263
1860,8619.452
1861,8726.816
1862,8774.054
1863,8725.979
1864,8663.63
1865,8655.575
1866,8698.895
1867,8768.662
1868,8794.921
1869,8708.367
1870,8573.853
1871,8520.387
1872,8564.625
1873,8628.401
1874,8658.224
1875,8637.872
1876,8586.812
1877,8595.079
1878,8716.265
1879,8843.962
1880,8860.535
1881,8788.943
1882,8698.62
1883,8614.729
1884,8538.523
1885,8501.082
1886,8558.681
1887,8693.335
1888,8784.563
1889,8762.736
1890,8681.521
1891,8603.805
1892,8570.634
1893,8605.234
1894,8659.529
1895,8667.139
1896,8608.934
1897,8494.213
1898,8395.314
1899,8428.419
1900,8572.272
1901,8648.957
1902,8595.365
1903,8556.662
1904,8628.025
1905,8727.344
1906,8769.804
1907,8766.801
1908,8745.328
1909,8687.961
1910,8570.981
1911,8462.175
1912,8469.741
1913,8563.205
1914,8607.405
1915,8569.939
1916,8534.63
1917,8537.3
1918,8528.81
1919,8488.975
1920,8479.443
1921,8543.528
1922,8628.202
1923,8672.367
1924,8670.245
1925,8634.987
1926,8597.38
1927,8590.267
1928,8588.84
1929,8538.521
1930,8460.287
1931,8435.351
1932,8489.17
1933,8582.676
1934,8654.893
1935,8617.539
1936,8463.135
1937,8354.94
1938,8404.986
1939,8521.018
1940,8594.979
1941,8597.288
1942,8526.25
1943,8427.901
1944,8361.393
1945,8363.15
1946,8451.546
1947,8562.196
1948,8588.326
1949,8535.468
1950,8495.381
1951,8505.871
1952,8547.42
1953,8592.442
1954,8606.446
1955,8574.878
1956,8517.544
1957,8455.872
1958,8407.566
1959,8384.692
1960,8384.77
1961,8402.229
1962,8429.487
1963,8454.796
1964,8449.226
1965,8389.919
1966,8321.521
1967,8302.325
1968,8298.754
1969,8243.748
1970,8172.006
1971,8171.643
1972,8242.831
1973,8322.71
1974,8366.213
1975,8346.897
1976,8283.782
1977,8242.907
1978,8260.433
1979,8330.548
1980,8412.796
1981,8418.341
1982,8330.954
1983,8275.841
1984,8322.912
1985,8386.081
1986,8389.116
1987,8337.172
1988,8257.073
1989,8202.051
1990,8203.868
1991,8194.235
1992,8116.908
1993,8073.128
1994,8165.217
1995,8272.422
1996,8240.164
1997,8152.907
1998,8157.209
1999,8194.628
2000,8138.924
2001,8047.362
2002,8051.563
2003,8111.874
2004,8105.586
2005,8072.87
2006,8143.083
2007,8243.023
2008,8171.077
2009,7987.656
2010,7948.589
2011,8056.857
2012,8097.668
2013,8012.63
2014,7898.447
2015,7815.189
2016,7778.369
2017,7806.205
2018,7920.125
2019,8068.498
2020,8113.406
2021,8039.955
2022,7998.923
2023,8023.209
2024,7967.037
2025,7801.917
2026,7692.295
2027,7712.623
2028,7771.25
2029,7794.037
2030,7760.68
2031,7705.361
2032,7746.423
2033,7885.493
2034,7900.901
2035,7737.945
2036,7694.24
2037,7879.38
2038,7970.924
2039,7805.436
2040,7625.629
2041,7584.339
2042,7561.884
2043,7489.51
2044,7465.376
2045,7520.419
2046,7509.857
2047,7390.97
2048,7369.542
2049,7525.604
2050,7626.651
2051,7543.676
2052,7427.854
2053,7401.044
2054,7462.438
2055,7557.793
2056,7558.948
2057,7432.299
2058,7334.442
2059,7351.941
2060,7408.604
2061,7422.663
2062,7333.256
2063,7161.879
2064,7060.889
2065,7098.488
2066,7191.581
2067,7244.441
2068,7165.44
2069,7004.887
2070,7004.778
2071,7185.204
2072,7263.876
2073,7157.427
2074,7045.579
2075,7005.813
2076,6984.683
2077,6979.399
2078,7043.082
2079,7146.814
2080,7184.935
2081,7120.796
2082,6983.809
2083,6856.998
2084,6852.588
2085,6932.359
2086,6960.881
2087,6917.967
2088,6854.656
2089,6790.221
2090,6724.8
2091,6653.532
2092,6577.064
2093,6552.441
2094,6633.14
2095,6699.994
2096,6622.731
2097,6555.275
2098,6659.593
2099,6722.072
2100,6544.428
2101,6377.605
2102,6441.246
2103,6522.565
2104,6450.794
2105,6392.603
2106,6461.151
2107,6528.031
2108,6504.571
2109,6436.61
2110,6357.003
2111,6256.54
2112,6163.551
2113,6156.224
2114,6217.333
2115,6228.407
2116,6176.322
2117,6142.4
2118,6146.729
2119,6160.893
2120,6146.486
2121,6073.703
2122,6025.547
2123,6105.595
2124,6203.528
2125,6168.409
2126,6054.673
2127,5956.676
2128,5883.93
2129,5830.995
2130,5806.916
2131,5825.097
2132,5901.998
2133,5984.605
2134,5901.459
2135,5674.552
2136,5598.726
2137,5719.719
2138,5805.316
2139,5795.645
2140,5775.475
2141,5713.919
2142,5532.667
2143,5392.749
2144,5504.403
2145,5679.783
2146,5665.374
2147,5546.608
2148,5465.486
2149,5458.673
2150,5496.836
2151,5448.988
2152,5306.128
2153,5280.01
2154,5375.361
2155,5329.78
2156,5167.071
2157,5162.528
2158,5277.932
2159,5288.532
2160,5217.965
2161,5194.604
2162,5247.86
2163,5340.133
2164,5309.326
2165,5069.369
2166,4813.227
2167,4725.431
2168,4884.699
2169,5144.959
2170,5103.631
2171,4806.776
2172,4695.574
2173,4770.991
2174,4773.028
2175,4711.629
2176,4695.398
2177,4710.829
2178,4727.384
2179,4778.444
2180,4849.471
2181,4799.82
2182,4628.491
2183,4548.269
2184,4524.616
2185,4298.5
2186,4045.248
2187,4152.685
2188,4388.336
2189,4355.254
2190,4177.637
2191,4068.039
2192,4060.551
2193,4103.43
2194,4050.391
2195,3950.674
2196,4079.474
2197,4282.628
2198,4119.152
2199,3789.313
2200,3727.542
2201,3798.296
2202,3773.734
2203,3737.428
2204,3773.653
2205,3842.808
2206,3888.619
2207,3858.916
2208,3807.205
2209,3845.787
2210,3860.612
2211,3689.003
2212,3499.402
2213,3476.888
2214,3559.514
2215,3673.332
2216,3797.106
2217,3807.329
2218,3505.523
2219,3193.426
2220,3371.319
2221,3638.569
2222,3479.531
2223,3290.06
2224,3353.449
2225,3278.276
2226,3017.978
2227,3038.143
2228,3300.068
2229,3401.773
2230,3296.246
2231,3104.463
2232,2962.621
2233,2931.666
2234,2897.059
2235,2838.844
2236,2880.63
2237,2980.03
2238,2990.84
2239,2990.551
2240,3075.05
2241,3031.423
2242,2781.985
2243,2675.745
2244,2815.739
2245,2958.01
2246,2934.159
2247,2686.981
2248,2440.161
2249,2420.142
2250,2537.233
2251,2634.905
2252,2559.326
2253,2394.037
2254,2403.52
2255,2488.97
2256,2429.684
2257,2307.783
2258,2218.902
2259,2108.362
2260,1983.006
2261,1938.362
2262,1963.575
2263,1988.905
2264,2021.342
2265,2066.495
2266,2055.798
2267,1969.553
2268,1873.128
2269,1814.248
2270,1813.834
2271,1837.901
2272,1846.669
2273,1846.833
2274,1842.294
2275,1821.301
2276,1802.984
2277,1819.138
2278,1815.541
2279,1744.547
2280,1686.182
2281,1681.322
2282,1676.737
2283,1660.453
2284,1648.023
2285,1587.736
2286,1477.596
2287,1527.759
2288,1714.526
2289,1669.913
2290,1468.28
2291,1444.7
2292,1571.012
2293,1669.683
2294,1511.155
2295,1160.4
2296,1003.029
2297,1069.827
2298,1185.969
2299,1221.203
2300,1129.989
