400,11405.18
401,11361.91
402,11311
403,11262.26
404,11225.94
405,11209.85
406,11210.57
407,11221.47
408,11236.18
409,11252.32
410,11270.58
411,11291.72
412,11313.69
413,11329.16
414,11330.17
415,11312.4
416,11290.6
417,11285.77
418,11317.12
419,11374.05
420,11420.69
421,11420.67
422,11363.73
423,11294.19
424,11263.05
425,11308.91
426,11400.98
427,11484.13
428,11506.24
429,11466.66
430,11410.03
431,11382.17
432,11404.46
433,11446.27
434,11470.45
435,11448.06
436,11395.74
437,11346.03
438,11329.67
439,11347.56
440,11375.01
441,11386.72
442,11370.27
443,11339.32
444,11310.62
445,11296.81
446,11289.29
447,11272.55
448,11232.42
449,11173.98
450,11117.48
451,11083.35
452,11081.21
453,11101.06
454,11130.86
455,11158.49
456,11171.26
457,11156.32
458,11102.74
459,11022.56
460,10943.33
461,10892.5
462,10879.38
463,10885.63
464,10890.65
465,10879.63
466,10858.59
467,10838.27
468,10828.45
469,10830.36
470,10840.49
471,10855.26
472,10867.8
473,10867.37
474,10842.99
475,10791.66
476,10732.16
477,10686.95
478,10673.85
479,10680.04
480,10680.04
481,10649.86
482,10592.54
483,10535.89
484,10508.32
485,10519.36
486,10541.12
487,10541.43
488,10497.34
489,10427.84
490,10363.95
491,10333.82
492,10334.34
493,10342.16
494,10334.17
495,10306.53
496,10281.65
497,10283.67
498,10324.82
499,10381.91
500,10425.36
501,10429.25
502,10392.45
503,10324.32
504,10234.83
505,10146.42
506,10092.59
507,10106.77
508,10193.02
509,10301.41
510,10376.42
511,10378.06
512,10328.15
513,10264.01
514,10219.52
515,10197.7
516,10184.74
517,10166.93
518,10136.92
519,10094.36
520,10039.3
521,9976.417
522,9920.882
523,9889.205
524,9891.639
525,9908.045
526,9909.123
527,9868.904
528,9797.694
529,9728.688
530,9694.504
531,9700.914
532,9720.382
533,9723.465
534,9694.556
535,9652.243
536,9620.236
537,9615.837
538,9623.116
539,9615.345
540,9568.883
541,9495.599
542,9430.637
543,9408.503
544,9431.773
545,9462.92
546,9462.105
547,9410.992
548,9343.679
549,9301.994
550,9316.636
551,9363.075
552,9399.576
553,9388.866
554,9340.55
555,9293.072
556,9283.844
557,9312.005
558,9332.651
559,9298.834
560,9196.217
561,9081.038
562,9018.518
563,9052.915
564,9139.469
565,9209.742
566,9203.99
567,9136.59
568,9060.438
569,9026.445
570,9041.667
571,9071.29
572,9079.238
573,9049.011
574,8997.998
575,8946.892
576,8911.788
577,8893.98
578,8891.732
579,8902.418
580,8917.699
581,8927.004
582,8920.889
583,8904.536
584,8893.598
585,8903.384
586,8930.81
587,8949.529
588,8931.907
589,8866.609
590,8779.048
591,8699.557
592,8652.478
593,8637.39
594,8647.353
595,8674.576
596,8704.06
597,8717.368
598,8697.381
599,8648.512
600,8593.284
601,8554.42
602,8541.776
603,8546.723
604,8559.235
605,8571.909
606,8583.849
607,8595.183
608,8604.929
609,8607.063
610,8594.157
611,8560.98
612,8520.75
613,8495.918
614,8507.332
615,8548.523
616,8589.846
617,8601.533
618,8576.026
619,8537.051
620,8510.529
621,8509.926
622,8519.158
623,8517.919
624,8491.935
625,8451.695
626,8414.067
627,8393.421
628,8386.244
629,8381.038
630,8366.864
631,8340.343
632,8303.679
633,8259.3
634,8213.098
635,8175.09
636,8155.41
637,8156.25
638,8164.528
639,8165.497
640,8150.791
641,8132.359
642,8126.138
643,8143.406
644,8170.454
645,8185.21
646,8168.617
647,8129.225
648,8090.746
649,8075.721
650,8084.81
651,8099.711
652,8101.809
653,8082.043
654,8044.215
655,7993.051
656,7937.771
657,7897.179
658,7891.21
659,7928.066
660,7976.119
661,7995.401
662,7955.733
663,7880.552
664,7811.723
665,7786.323
666,7798.555
667,7819.378
668,7821.215
669,7802.496
670,7783.142
671,7783.117
672,7804.403
673,7826.649
674,7828.338
675,7802.228
676,7767.795
677,7747.347
678,7753.326
679,7769.909
680,7776.304
681,7756.996
682,7719.885
683,7679.405
684,7648.201
685,7626.737
686,7610.231
687,7594.31
688,7579.283
689,7568.463
690,7564.945
691,7566.668
692,7566.764
693,7558.372
694,7541.388
695,7524.815
696,7518.211
697,7524.352
698,7532.763
699,7531.477
700,7513.174
701,7483.868
702,7451.931
703,7424.225
704,7401.206
705,7381.603
706,7364.682
707,7353.16
708,7351.104
709,7361.362
710,7374.764
711,7375.313
712,7348.482
713,7303.242
714,7267.389
715,7268.147
716,7305.431
717,7348.73
718,7366.414
719,7346.443
720,7307.005
721,7268.759
722,7245.651
723,7237.275
724,7241.353
725,7253.624
726,7263.743
727,7260.257
728,7236.568
729,7206.885
730,7190.963
731,7203.977
732,7233.391
733,7256.221
734,7252.089
735,7223.006
736,7182.629
737,7144.02
738,7111.835
739,7084.813
740,7061.525
741,7039.536
742,7015.468
743,6986.026
744,6951.833
745,6918.357
746,6891.315
747,6874.405
748,6868.018
749,6872.232
750,6886.341
751,6907.927
752,6934.355
753,6961.306
754,6979.5
755,6978.805
756,6953.816
757,6917.543
758,6887.452
759,6877.458
760,6883.218
761,6894.435
762,6901.594
763,6900.4
764,6888.814
765,6865.178
766,6831.295
767,6790.899
768,6748.267
769,6714.955
770,6707.676
771,6741.699
772,6803.985
773,6856.085
774,6860.002
775,6812.04
776,6747.179
777,6701.84
778,6690.334
779,6695.8
780,6699.192
781,6690.17
782,6673.705
783,6656.294
784,6641.722
785,6627.791
786,6611.516
787,6592.611
788,6578.238
789,6576.808
790,6592.304
791,6613.389
792,6625.432
793,6618.246
794,6600.841
795,6587.418
796,6588.854
797,6598.152
798,6602.271
799,6590.477
800,6567.334
801,6543.778
802,6529.165
803,6519.639
804,6504.667
805,6475.087
806,6436.554
807,6403.715
808,6390.213
809,6395.008
810,6406.432
811,6413.004
812,6410.012
813,6398.53
814,6379.874
815,6356.685
816,6332.938
817,6312.543
818,6295.988
819,6279.734
820,6260.155
821,6239.163
822,6226.283
823,6231.367
824,6252.097
825,6266.745
826,6252.147
827,6205.836
828,6163.582
829,6164.972
830,6220.897
831,6281.039
832,6287.51
833,6214.064
834,6112.178
835,6044.844
836,6049.766
837,6093.368
838,6129.67
839,6126.884
840,6098.987
841,6069.187
842,6055.649
843,6058.009
844,6071.598
845,6090.377
846,6102.381
847,6094.128
848,6058.073
849,6014.984
850,5994.028
851,6015.474
852,6051.952
853,6060.177
854,6007.355
855,5923.546
856,5862.272
857,5867.167
858,5915.731
859,5958.084
860,5951.931
861,5911.643
862,5877.428
863,5883.944
864,5919.333
865,5948.555
866,5940.732
867,5904.129
868,5868.22
869,5859.525
870,5873.301
871,5886.487
872,5877.932
873,5849.606
874,5818.028
875,5798.401
876,5787.632
877,5770.326
878,5732.658
879,5684.242
880,5651.445
881,5658.999
882,5703.808
883,5761.737
884,5809.171
885,5837.44
886,5849.79
887,5849.723
888,5839.738
889,5821.486
890,5796.935
891,5774.306
892,5767.268
893,5788.481
894,5828.622
895,5858.525
896,5849.891
897,5804.39
898,5751.644
899,5721.109
900,5718.155
901,5725.055
902,5723.89
903,5711.81
904,5700.761
905,5702.748
906,5717.767
907,5733.809
908,5738.854
909,5731.979
910,5723.528
911,5723.779
912,5730.448
913,5728.368
914,5702.535
915,5654.799
916,5604.371
917,5570.58
918,5557.847
919,5555.242
920,5551.479
921,5543.012
922,5534.227
923,5529.671
924,5529.317
925,5528.486
926,5522.432
927,5509.372
928,5490.504
929,5467.246
930,5443.089
931,5423.582
932,5414.011
933,5412.425
934,5409.876
935,5397.69
936,5378.25
937,5364.363
938,5368.372
939,5386.183
940,5398.672
941,5387.341
942,5354.496
943,5320.834
944,5306.572
945,5313.763
946,5329.014
947,5339.143
948,5341.721
949,5343.071
950,5349.149
951,5356.757
952,5355.599
953,5336.473
954,5307.745
955,5290.691
956,5304.45
957,5337.448
958,5356.775
959,5332.704
960,5277.224
961,5229.579
962,5225.333
963,5256.311
964,5287.596
965,5287.767
966,5262.721
967,5239.608
968,5242.792
969,5270.101
970,5305.367
971,5333.215
972,5345.369
973,5337.014
974,5305.424
975,5262.958
976,5228.675
977,5218.07
978,5223.142
979,5226.364
980,5213.806
981,5192.814
982,5178.549
983,5182.248
984,5194.384
985,5198.581
986,5183.213
987,5159.099
988,5143.676
989,5149.613
990,5169.571
991,5190.961
992,5204.327
993,5211.807
994,5218.241
995,5225.391
996,5224.923
997,5206.459
998,5167.641
999,5129.257
1000,5116.159
1001,5138.831
1002,5171.41
1003,5182.509
1004,5156.058
1005,5109.866
1006,5066.246
1007,5042.583
1008,5033.788
1009,5028.309
1010,5017.647
1011,5005.433
1012,4998.327
1013,4999.987
1014,5003.706
1015,5000.56
1016,4986.261
1017,4970.285
1018,4964.612
1019,4975.591
1020,4995.272
1021,5013.5
1022,5023.176
1023,5023.817
1024,5015.827
1025,5002.182
1026,4990.599
1027,4989.203
1028,5000.744
1029,5019.578
1030,5039.384
1031,5055.655
1032,5066.274
1033,5069.304
1034,5063.214
1035,5046.918
1036,5019.681
1037,4987.405
1038,4962.153
1039,4955.317
1040,4964.999
1041,4979.057
1042,4985.999
1043,4984.475
1044,4979.587
1045,4976.186
1046,4976.079
1047,4979.506
1048,4986.311
1049,4993.743
1050,4997.975
1051,4996.255
1052,4991.503
1053,4988.497
1054,4990.315
1055,4993.015
1056,4990.856
1057,4981.79
1058,4975.521
1059,4984.056
1060,5012.808
1061,5050.905
1062,5085.046
1063,5104.882
1064,5105.707
1065,5083.659
1066,5045.674
1067,5014.828
1068,5014.731
1069,5046.297
1070,5084.056
1071,5102.276
1072,5097.906
1073,5088.309
1074,5090.428
1075,5106.773
1076,5129.862
1077,5153.257
1078,5181.468
1079,5224.753
1080,5290.789
1081,5370.601
1082,5448.71
1083,5512.125
1084,5559.202
1085,5591.546
1086,5609.935
1087,5612.415
1088,5596.492
1089,5565.137
1090,5534.311
1091,5521.671
1092,5530.658
1093,5540.104
1094,5526.968
1095,5488.34
1096,5446.815
1097,5425.408
1098,5423.028
1099,5416.234
1100,5382.728
1101,5324.38
1102,5259.316
1103,5204.782
1104,5168.708
1105,5154.544
1106,5163.172
1107,5181.815
1108,5193.146
1109,5185.968
1110,5171.383
1111,5165.532
1112,5176.928
1113,5195.208
1114,5207.26
1115,5208.448
1116,5208.621
1117,5218.749
1118,5240.713
1119,5265.586
1120,5284.036
1121,5290.391
1122,5282.006
1123,5257.028
1124,5220.477
1125,5181.28
1126,5146.952
1127,5116.085
1128,5083.882
1129,5047.171
1130,5009.226
1131,4974.914
1132,4948.527
1133,4932.903
1134,4930.554
1135,4936.806
1136,4934.916
1137,4907.657
1138,4856.529
1139,4803.985
1140,4772.333
1141,4766.298
1142,4777.52
1143,4797.538
1144,4819.578
1145,4837.684
1146,4846.938
1147,4847.429
1148,4840.792
1149,4830.33
1150,4824.397
1151,4832.193
1152,4851.776
1153,4860.16
1154,4832.874
1155,4773.219
1156,4718.024
1157,4703.342
1158,4723.606
1159,4741.071
1160,4722.663
1161,4679.929
1162,4646.109
1163,4646.403
1164,4667.575
1165,4685.103
1166,4682.368
1167,4664.669
1168,4641.055
1169,4619.126
1170,4604.057
1171,4600.494
1172,4606.016
1173,4610.859
1174,4605.758
1175,4591.103
1176,4573.447
1177,4558.725
1178,4548.425
1179,4542.349
1180,4540.08
1181,4540.473
1182,4542.219
1183,4543.686
1184,4542.599
1185,4536.671
1186,4525.771
1187,4512.328
1188,4498.994
1189,4489.296
1190,4487.393
1191,4495.717
1192,4505.005
1193,4501.15
1194,4477.003
1195,4450.881
1196,4446.81
1197,4473.629
1198,4509.363
1199,4528.8
1200,4522.299
1201,4498.416
1202,4466.893
1203,4439.378
1204,4428.811
1205,4444.557
1206,4473.941
1207,4495.958
1208,4496.332
1209,4482.458
1210,4466.018
1211,4453.33
1212,4441.358
1213,4426.481
1214,4413.022
1215,4413.1
1216,4437.214
1217,4477.603
1218,4516.511
1219,4538.862
1220,4542.496
1221,4529.009
1222,4504.096
1223,4483.229
1224,4482.902
1225,4504.04
1226,4527.545
1227,4534.37
1228,4523.546
1229,4506.823
1230,4494.956
1231,4491.112
1232,4495.65
1233,4506.613
1234,4515.239
1235,4511.641
1236,4494.07
1237,4473.204
1238,4460.335
1239,4459.574
1240,4469.177
1241,4486.501
1242,4503.858
1243,4511.423
1244,4503.927
1245,4491.15
1246,4485.863
1247,4492.907
1248,4504.085
1249,4510.383
1250,4509.814
1251,4506.386
1252,4504.098
1253,4505.47
1254,4512.387
1255,4523.835
1256,4529.308
1257,4516.544
1258,4486.391
1259,4460.614
1260,4461.517
1261,4489.542
1262,4527.442
1263,4558.745
1264,4575.369
1265,4572.568
1266,4550.243
1267,4521.857
1268,4503.206
1269,4503.345
1270,4521.871
1271,4556.675
1272,4592.814
1273,4606.438
1274,4580.35
1275,4533.352
1276,4495.986
1277,4487.981
1278,4503.679
1279,4533.731
1280,4567.252
1281,4591.638
1282,4595.538
1283,4580.017
1284,4552.784
1285,4523.113
1286,4505.953
1287,4517.423
1288,4557.478
1289,4598.525
1290,4612.059
1291,4598.708
1292,4582.582
1293,4584.277
1294,4599.42
1295,4614.471
1296,4620.59
1297,4620.773
1298,4619.722
1299,4618.628
1300,4614.692
1301,4605.755
1302,4597.287
1303,4598.747
1304,4615.333
1305,4637.055
1306,4650.676
1307,4649.923
1308,4639.117
1309,4623.819
1310,4613.912
1311,4622.269
1312,4657.533
1313,4708.052
1314,4756.191
1315,4786.808
1316,4789.611
1317,4756.343
1318,4705.159
1319,4676.829
1320,4703.278
1321,4759.266
1322,4798.604
1323,4796.514
1324,4778.454
1325,4776.114
1326,4798.1
1327,4829.833
1328,4856.278
1329,4866.504
1330,4851.341
1331,4813.037
1332,4784.352
1333,4801.825
1334,4864.279
1335,4928.5
1336,4954.717
1337,4947.84
1338,4933.755
1339,4929.679
1340,4927.401
1341,4914.574
1342,4892.348
1343,4877.666
1344,4884.914
1345,4900.238
1346,4896.075
1347,4859.119
1348,4818.025
1349,4808.188
1350,4835.803
1351,4873.105
1352,4892.923
1353,4888.253
1354,4861.618
1355,4820.718
1356,4787.477
1357,4785.415
1358,4813.215
1359,4842.395
1360,4847.498
1361,4834.895
1362,4824.761
1363,4831.733
1364,4856.396
1365,4896.762
1366,4942.021
1367,4972.762
1368,4974.291
1369,4962.885
1370,4966.372
1371,4997.219
1372,5035.249
1373,5057.265
1374,5059.845
1375,5055.785
1376,5056.273
1377,5062.224
1378,5071.442
1379,5081.356
1380,5088.77
1381,5090.788
1382,5088.972
1383,5087.792
1384,5090.412
1385,5095.023
1386,5098.537
1387,5092.606
1388,5062.033
1389,4995.809
1390,4921.002
1391,4883.26
1392,4907.03
1393,4960.844
1394,5005.038
1395,5019.34
1396,5001.885
1397,4955.708
1398,4906.49
1399,4887.378
1400,4907.766
1401,4934.455
1402,4933.105
1403,4909.325
1404,4894.79
1405,4910.169
1406,4936.301
1407,4945.953
1408,4930.792
1409,4904.844
1410,4882.49
1411,4871.454
1412,4876.688
1413,4898.502
1414,4927.403
1415,4952.825
1416,4967.25
1417,4965.411
1418,4945.903
1419,4922.1
1420,4910.723
1421,4918.522
1422,4939.61
1423,4966.52
1424,4986.453
1425,4984.343
1426,4956.669
1427,4924.608
1428,4911.042
1429,4917.792
1430,4931.376
1431,4940.53
1432,4943.447
1433,4940.657
1434,4938.36
1435,4949.356
1436,4982.355
1437,5018.214
1438,5027.285
1439,5001.285
1440,4971.229
1441,4968.86
1442,4987.632
1443,4997.716
1444,4981.693
1445,4959.118
1446,4955.156
1447,4973.089
1448,4996.053
1449,5009.553
1450,5013.507
1451,5011.922
1452,5008.479
1453,5006.408
1454,5007.759
1455,5006.406
1456,4992.77
1457,4969.015
1458,4960.426
1459,4991.567
1460,5048.158
1461,5091.678
1462,5098.27
1463,5086.919
1464,5082.924
1465,5088.116
1466,5083.974
1467,5059.154
1468,5034.249
1469,5037.196
1470,5070.764
1471,5108.183
1472,5126.21
1473,5131.582
1474,5141.362
1475,5158.467
1476,5163.805
1477,5140.389
1478,5102.955
1479,5081.06
1480,5086.439
1481,5094.554
1482,5079.171
1483,5043.562
1484,5008.862
1485,4989.458
1486,4981.491
1487,4978.521
1488,4979.144
1489,4985.743
1490,4999.216
1491,5015.283
1492,5028.617
1493,5034.288
1494,5027.738
1495,5008.561
1496,4992.945
1497,5000.427
1498,5027.085
1499,5043.469
1500,5026.755
1501,4992.549
1502,4967.722
1503,4967.463
1504,4992.215
1505,5038.367
1506,5084.86
1507,5104.901
1508,5092.514
1509,5071.397
1510,5064.083
1511,5070.589
1512,5082.072
1513,5090.25
1514,5087.781
1515,5069.7
1516,5047.469
1517,5039.557
1518,5053.684
1519,5079.235
1520,5104.139
1521,5119.173
1522,5116.552
1523,5101.886
1524,5104.719
1525,5150.063
1526,5205.843
1527,5212.803
1528,5154.316
1529,5092.537
1530,5089.246
1531,5132.05
1532,5172.443
1533,5182.86
1534,5174.917
1535,5163.392
1536,5154.164
1537,5148.823
1538,5149.246
1539,5157.85
1540,5175.692
1541,5192.766
1542,5194.079
1543,5181.415
1544,5185.463
1545,5231.879
1546,5288.649
1547,5298.994
1548,5252.088
1549,5210.941
1550,5232.559
1551,5289.595
1552,5321.431
1553,5307.796
1554,5287.425
1555,5294.987
1556,5313.934
1557,5310.011
1558,5277.294
1559,5246.604
1560,5243.58
1561,5255.418
1562,5257.994
1563,5246.622
1564,5238.512
1565,5247.981
1566,5272.173
1567,5303.739
1568,5335.675
1569,5361.299
1570,5375.077
1571,5375.438
1572,5362.093
1573,5341.588
1574,5325.885
1575,5325.101
1576,5343.797
1577,5384.662
1578,5439.453
1579,5492.93
1580,5531.755
1581,5546.995
1582,5533.074
1583,5508.05
1584,5501.552
1585,5521.399
1586,5539.11
1587,5529.224
1588,5506.246
1589,5499.337
1590,5518.679
1591,5550.526
1592,5581.448
1593,5606.333
1594,5622.687
1595,5635.128
1596,5654.939
1597,5687.236
1598,5717.121
1599,5727.029
1600,5715.276
1601,5691.002
1602,5665.93
1603,5656.828
1604,5677.456
1605,5711.961
1606,5730.683
1607,5724.505
1608,5715.283
1609,5722.333
1610,5738.539
1611,5748.54
1612,5742.866
1613,5718.103
1614,5681.136
1615,5671.688
1616,5729.953
1617,5814.959
1618,5830.312
1619,5741.744
1620,5647.356
1621,5644.628
1622,5703.427
1623,5738.46
1624,5715.08
1625,5666.609
1626,5626.017
1627,5604.043
1628,5604.583
1629,5615.587
1630,5611.587
1631,5582.492
1632,5558.081
1633,5569.558
1634,5605.868
1635,5634.575
1636,5644.147
1637,5654.676
1638,5680.62
1639,5697.332
1640,5671.068
1641,5615.632
1642,5587.152
1643,5614.404
1644,5651.144
1645,5645.179
1646,5598.269
1647,5539.854
1648,5500.416
1649,5511.518
1650,5587.77
1651,5668.431
1652,5677.477
1653,5631.463
1654,5622.072
1655,5689.784
1656,5753.251
1657,5730.272
1658,5655.842
1659,5614.572
1660,5632.35
1661,5663.614
1662,5671.621
1663,5665.602
1664,5663.576
1665,5669.719
1666,5679.31
1667,5684.586
1668,5672.837
1669,5636.864
1670,5600.01
1671,5593.356
1672,5611.496
1673,5617.136
1674,5596.236
1675,5591.895
1676,5644.639
1677,5718.557
1678,5746.781
1679,5717.557
1680,5681.773
1681,5678.423
1682,5699.419
1683,5728.379
1684,5755.41
1685,5774.26
1686,5785.608
1687,5799.735
1688,5823.892
1689,5851.045
1690,5870.696
1691,5871.662
1692,5842.602
1693,5791.893
1694,5760.051
1695,5776.107
1696,5804.676
1697,5796.766
1698,5763.27
1699,5758.433
1700,5797.841
1701,5825.288
1702,5796.466
1703,5762.614
1704,5798.25
1705,5887.07
1706,5942.178
1707,5917.983
1708,5851.364
1709,5785.378
1710,5746.836
1711,5755.232
1712,5794.154
1713,5818.909
1714,5805.348
1715,5769.922
1716,5734.837
1717,5727.94
1718,5775.273
1719,5849.314
1720,5882.186
1721,5851.693
1722,5819.394
1723,5838.424
1724,5883.415
1725,5909.091
1726,5901.596
1727,5869.001
1728,5825.591
1729,5794.847
1730,5792.66
1731,5801.563
1732,5798.715
1733,5791.717
1734,5806.101
1735,5850.118
1736,5908.112
1737,5960.818
1738,5983.147
1739,5954.178
1740,5897.68
1741,5858.458
1742,5853.968
1743,5871.337
1744,5898.218
1745,5927.536
1746,5951.455
1747,5952.869
1748,5913.604
1749,5858.318
1750,5847.544
1751,5897.169
1752,5938.366
1753,5918.133
1754,5891.824
1755,5935.017
1756,6023.571
1757,6073.185
1758,6051.053
1759,5993.375
1760,5933.958
1761,5885.835
1762,5858.651
1763,5863.935
1764,5912.212
1765,5979.39
1766,6010.649
1767,5984.148
1768,5942.141
1769,5924.446
1770,5930.519
1771,5948.366
1772,5957.204
1773,5932.129
1774,5879.72
1775,5843.839
1776,5851.917
1777,5885.296
1778,5920.394
1779,5945.269
1780,5953.502
1781,5960.054
1782,5994.466
1783,6052.311
1784,6080.171
1785,6049.257
1786,6014.971
1787,6033.282
1788,6062.396
1789,6027.532
1790,5951.372
1791,5934.01
1792,6006.562
1793,6087.881
1794,6112.115
1795,6094.798
1796,6064.892
1797,6031.357
1798,5995.299
1799,5966.449
1800,5961.512
1801,5984.702
1802,6020.114
1803,6047.921
1804,6041.812
1805,5984.463
1806,5926.124
1807,5938.383
1808,6002.12
1809,6029.124
1810,5995.984
1811,5975.794
1812,6016.432
1813,6074.319
1814,6099.319
1815,6093.576
1816,6076.127
1817,6050.661
1818,6011.504
1819,5979.45
1820,6007.31
1821,6105.235
1822,6183.741
1823,6166.905
1824,6096.809
1825,6043.03
1826,6036.105
1827,6084.138
1828,6145.539
1829,6133.971
1830,6038.752
1831,5976.504
1832,6021.712
1833,6085.247
1834,6069.842
1835,6009.71
1836,5979.754
1837,5982.24
1838,5974.217
1839,5955.587
1840,5974.708
1841,6045.207
1842,6108.144
1843,6114.801
1844,6082.138
1845,6038.866
1846,5996.211
1847,5960.069
1848,5956.933
1849,6025.194
1850,6126.541
1851,6133.204
1852,6013.813
1853,5938.672
1854,6027.917
1855,6143.705
1856,6128.886
1857,6056.907
1858,6074.477
1859,6146.177
1860,6124.06
1861,6017.95
1862,6006.669
1863,6138.443
1864,6218.584
1865,6123.975
1866,6014.04
1867,6048.361
1868,6125.086
1869,6083.569
1870,5975.708
1871,5956.728
1872,6034.916
1873,6095.157
1874,6084.325
1875,6037.538
1876,5997.194
1877,6007.899
1878,6093.229
1879,6201.791
1880,6273.508
1881,6294.361
1882,6267.611
1883,6203.38
1884,6116.993
1885,6046.788
1886,6049.87
1887,6107.161
1888,6095.001
1889,5976.311
1890,5912.777
1891,6016.607
1892,6150.816
1893,6164.81
1894,6112.684
1895,6102.922
1896,6126.983
1897,6121.047
1898,6092.383
1899,6101.258
1900,6143.94
1901,6142.891
1902,6080.504
1903,6047.071
1904,6094.46
1905,6151.065
1906,6143.914
1907,6069.303
1908,5949.3
1909,5859.581
1910,5882.225
1911,5975.815
1912,6038.109
1913,6057.408
1914,6090.813
1915,6135.321
1916,6120.252
1917,6034.364
1918,5965.315
1919,5968.728
1920,6008.404
1921,6043.029
1922,6055.67
1923,6039.786
1924,6014.945
1925,6006.962
1926,6030.73
1927,6092.654
1928,6158.777
1929,6174.441
1930,6140.628
1931,6103.216
1932,6082.758
1933,6070.246
1934,6063.598
1935,6073.474
1936,6102.211
1937,6132.844
1938,6146.087
1939,6122.977
1940,6056.287
1941,5984.352
1942,5951.26
1943,5971.693
1944,6045.876
1945,6139.345
1946,6203.625
1947,6209.055
1948,6141.25
1949,6047.15
1950,6017.792
1951,6053.062
1952,6060.741
1953,6012.822
1954,5970.268
1955,5966.789
1956,5980.141
1957,5986.406
1958,5969.731
1959,5930.994
1960,5914.917
1961,5951.64
1962,5990.708
1963,5976.502
1964,5915.309
1965,5836.311
1966,5797.241
1967,5849.472
1968,5909.774
1969,5850.66
1970,5743.407
1971,5761.665
1972,5881.558
1973,5942.515
1974,5910.697
1975,5864.373
1976,5828.491
1977,5768.617
1978,5706.262
1979,5736.826
1980,5862.733
1981,5936.319
1982,5880.966
1983,5775.12
1984,5696.236
1985,5682.293
1986,5738.142
1987,5795.05
1988,5806.198
1989,5831.695
1990,5917.355
1991,5976.731
1992,5927.679
1993,5844.873
1994,5824.937
1995,5851.358
1996,5876.403
1997,5886.792
1998,5881.101
1999,5849.76
2000,5786.259
2001,5739.534
2002,5771.921
2003,5805.248
2004,5701.349
2005,5547.162
2006,5554.997
2007,5689.284
2008,5747.929
2009,5706.204
2010,5677.828
2011,5694.4
2012,5713.244
2013,5704.556
2014,5655.201
2015,5601.495
2016,5627.514
2017,5726.75
2018,5789.069
2019,5754.089
2020,5630.351
2021,5477.29
2022,5413.308
2023,5454.633
2024,5470.626
2025,5433.078
2026,5480.704
2027,5638.966
2028,5735.172
2029,5688.959
2030,5601.102
2031,5536.002
2032,5466.099
2033,5396.251
2034,5405.324
2035,5507.395
2036,5582.138
2037,5562.127
2038,5509.322
2039,5478.515
2040,5481.444
2041,5482.067
2042,5360.166
2043,5113.279
2044,4994.959
2045,5124.489
2046,5287.442
2047,5333.057
2048,5321.227
2049,5305.508
2050,5275.714
2051,5236.097
2052,5234.426
2053,5289.783
2054,5355.213
2055,5392.092
2056,5392.433
2057,5352.229
2058,5268.968
2059,5180.822
2060,5197.201
2061,5329.793
2062,5410.067
2063,5339.135
2064,5163.4
2065,4989.958
2066,4996.107
2067,5177.895
2068,5257.776
2069,5143.16
2070,5028.022
2071,5018.322
2072,5076.436
2073,5135.377
2074,5107.918
2075,5013.042
2076,4986.301
2077,5053.851
2078,5124.923
2079,5175.092
2080,5242.276
2081,5257.79
2082,5075.73
2083,4820.189
2084,4801.373
2085,4950.967
2086,4957.727
2087,4842.39
2088,4816.834
2089,4868.755
2090,4873.821
2091,4843.714
2092,4842.898
2093,4824
2094,4720.182
2095,4645.27
2096,4731.45
2097,4848.537
2098,4833.763
2099,4759.808
2100,4731.67
2101,4730.194
2102,4726.054
2103,4749.609
2104,4797.492
2105,4746.333
2106,4553.447
2107,4398.582
2108,4389.631
2109,4444.995
2110,4503.611
2111,4567.688
2112,4603.846
2113,4530.539
2114,4401.277
2115,4408.097
2116,4534.766
2117,4584.032
2118,4521.283
2119,4432.101
2120,4356.573
2121,4309.1
2122,4330.105
2123,4444.48
2124,4500.022
2125,4348.721
2126,4196.203
2127,4247.589
2128,4300.889
2129,4184.595
2130,4095.529
2131,4160.375
2132,4197.452
2133,4117.955
2134,4069.832
2135,4140.852
2136,4299.113
2137,4413.692
2138,4276.722
2139,4013.965
2140,3990.965
2141,4100.857
2142,3995.36
2143,3863.508
2144,4038.88
2145,4156.727
2146,3817.284
2147,3556.83
2148,3840.232
2149,4137.365
2150,4039.059
2151,3844.582
2152,3774.931
2153,3758.241
2154,3732.313
2155,3683.347
2156,3640.916
2157,3663.478
2158,3710.288
2159,3687.319
2160,3615.837
2161,3573.017
2162,3631.791
2163,3799.311
2164,3838.085
2165,3632.728
2166,3541.93
2167,3712.972
2168,3766.551
2169,3586.396
2170,3462.746
2171,3450.046
2172,3379.05
2173,3321.538
2174,3458.263
2175,3568.914
2176,3363.777
2177,3099.991
2178,3058.567
2179,3066.242
2180,2992.198
2181,2986.735
2182,3101.982
2183,3199.057
2184,3199.077
2185,3103.342
2186,2990.993
2187,2967.413
2188,2964.601
2189,2877.39
2190,2785.298
2191,2783.115
2192,2855.792
2193,2952.31
2194,2993.622
2195,2972.725
2196,2969.763
2197,2982.827
2198,2947.389
2199,2871.199
2200,2796.731
2201,2743.955
2202,2718.561
2203,2704.444
2204,2688.963
2205,2675.927
2206,2697.43
2207,2808.821
2208,2904.637
2209,2786.212
2210,2580.697
2211,2512.698
2212,2464.484
2213,2330.773
2214,2344.935
2215,2583.469
2216,2749.19
2217,2718.944
2218,2597.305
2219,2475.049
2220,2423.367
2221,2494.182
2222,2661.934
2223,2645.601
2224,2353.692
2225,2212.901
2226,2329.597
2227,2341.732
2228,2206.55
2229,2124.307
2230,2115.034
2231,2115.703
2232,2067.392
2233,1977.06
2234,1993.824
2235,2128.278
2236,2193.023
2237,2123.022
2238,1963.113
2239,1799.504
2240,1737.914
2241,1891.639
2242,2175.109
2243,2102.078
2244,1687.799
2245,1549.304
2246,1699.914
2247,1775.762
2248,1736.419
2249,1666.073
2250,1653.357
2251,1744.173
2252,1905.387
2253,1985.993
2254,1786.443
2255,1586.816
2256,1740.727
2257,1841.394
2258,1578.763
2259,1309.283
2260,1246.582
2261,1321.804
2262,1414.809
2263,1418.745
2264,1423.989
2265,1507.775
2266,1532.187
2267,1447.656
2268,1372.959
2269,1329.752
2270,1267.718
2271,1204.314
2272,1170.273
2273,1154.853
2274,1167.063
2275,1249.259
2276,1307.386
2277,1183.795
2278,1035.143
2279,1046.26
2280,1094.164
2281,1123.911
2282,1255.473
2283,1330.293
2284,1059.299
2285,767.5121
2286,798.8225
2287,869.577
2288,824.97
2289,833.9639
2290,915.121
2291,975.0501
2292,975.9319
2293,932.9717
2294,939.3807
2295,975.3071
2296,894.8976
2297,761.1743
2298,728.0104
2299,803.9341
2300,916.8831
