400,21979.31
401,21975.07
402,21950.87
403,21915.77
404,21880.25
405,21853.51
406,21839.01
407,21838.55
408,21853.12
409,21871.77
410,21874.38
411,21840.85
412,21769.83
413,21696.2
414,21658.82
415,21687.4
416,21763.69
417,21853.59
418,21924.27
419,21961.16
420,21965.34
421,21938.34
422,21887.74
423,21833.73
424,21797.97
425,21798.02
426,21828.32
427,21875.23
428,21925.36
429,21969.32
430,22001.21
431,22015.28
432,22007.41
433,21976.86
434,21923.35
435,21849.12
436,21770.74
437,21709.71
438,21686.36
439,21701.12
440,21737.36
441,21778
442,21806.42
443,21806.79
444,21763.46
445,21668.12
446,21550.43
447,21452.37
448,21412.96
449,21429.12
450,21464.57
451,21482.52
452,21464.1
453,21422.91
454,21375.94
455,21335.85
456,21296.05
457,21244.57
458,21171.28
459,21088.91
460,21025.62
461,21009.27
462,21041.35
463,21082.95
464,21091.93
465,21040.7
466,20954.15
467,20869.08
468,20818.44
469,20800.66
470,20795.28
471,20782.02
472,20750.98
473,20704.84
474,20647.01
475,20583.96
476,20530.67
477,20503.48
478,20514.13
479,20543.48
480,20559.76
481,20533.05
482,20469
483,20405.71
484,20382.09
485,20409.47
486,20444.64
487,20438.12
488,20356.87
489,20242.65
490,20158.6
491,20161.13
492,20231.64
493,20303.08
494,20309.12
495,20234.22
496,20131.98
497,20060.69
498,20054.73
499,20077.86
500,20080.96
501,20023.65
502,19924.76
503,19828.1
504,19775.52
505,19774.44
506,19801.54
507,19832.62
508,19849.48
509,19844.97
510,19813.13
511,19752.27
512,19677.98
513,19610.1
514,19566.35
515,19545.24
516,19534.79
517,19523.13
518,19502.68
519,19470.56
520,19424.22
521,19364.12
522,19297.67
523,19233.17
524,19177.62
525,19131.81
526,19094.66
527,19064.59
528,19034.56
529,18994.09
530,18932.97
531,18850.24
532,18756.39
533,18662.58
534,18580.05
535,18520.33
536,18494.93
537,18509.88
538,18542.55
539,18561.05
540,18536.43
541,18473.19
542,18397.77
543,18336.38
544,18298.42
545,18272.05
546,18244.22
547,18206.27
548,18160.34
549,18110.19
550,18059.21
551,18008.99
552,17960.55
553,17915.12
554,17876.34
555,17849.32
556,17838.96
557,17844.44
558,17858.34
559,17872.92
560,17880.43
561,17873.17
562,17843.44
563,17788.31
564,17725.13
565,17676.63
566,17661.89
567,17668.39
568,17667.23
569,17630.89
570,17561.19
571,17487.95
572,17441.77
573,17435.43
574,17450.87
575,17467.06
576,17468.24
577,17455.73
578,17434.33
579,17408.47
580,17380.43
581,17351.63
582,17323.34
583,17295.21
584,17265.68
585,17233.27
586,17199.46
587,17169.47
588,17148.73
589,17138.11
590,17128.15
591,17108.02
592,17069.55
593,17015.54
594,16951.66
595,16884.01
596,16822.27
597,16777.84
598,16760.96
599,16762.71
600,16758.04
601,16722.01
602,16654.74
603,16592.37
604,16573.62
605,16613.62
606,16668.34
607,16684.79
608,16625.6
609,16523.64
610,16431.64
611,16395.7
612,16407.67
613,16432.2
614,16435.45
615,16411.4
616,16377.58
617,16351.96
618,16340.92
619,16334.56
620,16321.82
621,16296
622,16260.66
623,16220.86
624,16180.35
625,16137.49
626,16089.26
627,16034.46
628,15985.17
629,15959.37
630,15973.14
631,16016.43
632,16059.93
633,16074.58
634,16048.91
635,15992.33
636,15915.46
637,15831.79
638,15760.38
639,15720.85
640,15723.62
641,15749.86
642,15774.99
643,15777.78
644,15754.46
645,15707.18
646,15639.33
647,15566.08
648,15509.04
649,15488.41
650,15499.57
651,15516.41
652,15512.62
653,15478.6
654,15427.23
655,15372.9
656,15326.01
657,15288.57
658,15261.51
659,15244.71
660,15234.47
661,15226.33
662,15216.38
663,15203.43
664,15187.29
665,15167.46
666,15140.55
667,15101.69
668,15046.68
669,14983.23
670,14928.85
671,14900.82
672,14900.94
673,14911.78
674,14914.85
675,14900.3
676,14874.34
677,14844.94
678,14818.28
679,14795.45
680,14776.64
681,14760.91
682,14742.27
683,14713.36
684,14668.93
685,14618.52
686,14578.04
687,14561.4
688,14560.08
689,14551.2
690,14512.98
691,14447.95
692,14381.35
693,14338.73
694,14326.35
695,14324.5
696,14311.78
697,14276.02
698,14223.07
699,14160.84
700,14099.58
701,14056.44
702,14049.73
703,14089.2
704,14148.03
705,14189.68
706,14183.94
707,14140.6
708,14085.35
709,14041.73
710,14013.35
711,13992.42
712,13971.31
713,13946.68
714,13918.59
715,13887.31
716,13855.93
717,13830.69
718,13817.82
719,13816.88
720,13817.09
721,13806.85
722,13779.6
723,13739.57
724,13692.39
725,13643.83
726,13600.14
727,13567.63
728,13549.89
729,13538.7
730,13522.71
731,13493.09
732,13456.29
733,13424.53
734,13408.43
735,13404.72
736,13402.92
737,13393.12
738,13373.15
739,13346.25
740,13315.69
741,13283.45
742,13250.28
743,13216.96
744,13187.52
745,13170
746,13172.45
747,13189.13
748,13191.63
749,13149.69
750,13057.55
751,12962.76
752,12919.68
753,12955.55
754,13018.92
755,13044.35
756,12988.33
757,12892.67
758,12819.83
759,12817.84
760,12860
761,12895.34
762,12881.35
763,12834.06
764,12794.55
765,12798.74
766,12833.33
767,12857.69
768,12834.54
769,12772.61
770,12713.37
771,12696.76
772,12724.26
773,12762.82
774,12778.89
775,12756.15
776,12697.67
777,12607.79
778,12503.63
779,12420.37
780,12394.01
781,12431.06
782,12485.99
783,12508.26
784,12472.91
785,12411.23
786,12361.88
787,12349.04
788,12356.93
789,12363.02
790,12350.02
791,12318.79
792,12274.1
793,12221.14
794,12167.12
795,12119.73
796,12085.98
797,12069.19
798,12071.39
799,12092.59
800,12118.73
801,12129.96
802,12108.93
803,12059.04
804,11994.2
805,11928.23
806,11873.78
807,11842.78
808,11845.68
809,11873.62
810,11903.73
811,11913.95
812,11899.6
813,11870.96
814,11838.59
815,11809.81
816,11788.7
817,11778.93
818,11776.95
819,11770.65
820,11747.74
821,11705.84
822,11656.17
823,11610.85
824,11577.29
825,11555.42
826,11544.51
827,11543.79
828,11552.46
829,11569.68
830,11590.58
831,11601.65
832,11588.36
833,11544.9
834,11486.89
835,11433.12
836,11396.08
837,11370.55
838,11348.18
839,11323.64
840,11301.31
841,11287.47
842,11285.53
843,11288.15
844,11285.52
845,11270.86
846,11250.26
847,11233.16
848,11225.45
849,11216.23
850,11189.58
851,11134.99
852,11070.78
853,11024.94
854,11019.26
855,11038.62
856,11054.06
857,11041.35
858,11007.33
859,10971.8
860,10952.31
861,10949.86
862,10957.89
863,10969.75
864,10978.08
865,10975.22
866,10954.76
867,10921.95
868,10888.36
869,10864.57
870,10850.81
871,10841.31
872,10830.51
873,10816.44
874,10799.36
875,10779.57
876,10757.77
877,10734.85
878,10712.03
879,10694.34
880,10689.59
881,10704.68
882,10732.76
883,10756.64
884,10760.04
885,10744.25
886,10724.58
887,10715.72
888,10716.45
889,10712.27
890,10689.3
891,10651.46
892,10618.09
893,10608.05
894,10622.19
895,10645.05
896,10661.17
897,10665.51
898,10662.68
899,10657.33
900,10647.01
901,10622.43
902,10574.86
903,10513.28
904,10464.1
905,10453
906,10474.18
907,10490.39
908,10464.84
909,10401.04
910,10343.4
911,10336
912,10375.27
913,10408.8
914,10384.18
915,10298.92
916,10201.9
917,10142.54
918,10130.88
919,10136.3
920,10127.41
921,10095.99
922,10057.66
923,10028.64
924,10015.04
925,10012.63
926,10016.75
927,10023.3
928,10028.63
929,10029.28
930,10023.59
931,10011.8
932,9994.138
933,9969.505
934,9935.512
935,9890.211
936,9842.033
937,9809.183
938,9808.914
939,9833.287
940,9851.332
941,9833.112
942,9781.944
943,9730.528
944,9710.775
945,9725.028
946,9750.508
947,9764.642
948,9760.135
949,9742.13
950,9716.025
951,9685.753
952,9654.106
953,9624.104
954,9602.399
955,9598.325
956,9619.773
957,9655.604
958,9681.457
959,9675.247
960,9644.074
961,9614.116
962,9609.238
963,9625.448
964,9641.74
965,9639.245
966,9622.135
967,9607.692
968,9610.717
969,9622.679
970,9622.771
971,9593.477
972,9544.572
973,9499.087
974,9477.097
975,9476.864
976,9486.925
977,9496.021
978,9494.328
979,9472.632
980,9425.598
981,9370.906
982,9334.655
983,9336.173
984,9358.966
985,9374.711
986,9362.579
987,9337.022
988,9322.92
989,9337.16
990,9363.105
991,9375.33
992,9356.104
993,9316.235
994,9273.161
995,9240.328
996,9218.142
997,9204.336
998,9195.792
999,9186.922
1000,9171.709
1001,9147.648
1002,9121.101
1003,9099.795
1004,9090.539
1005,9098.151
1006,9127.159
1007,9175.817
1008,9213.397
1009,9200.906
1010,9116.933
1011,9010.258
1012,8947.117
1013,8969.697
1014,9037.304
1015,9091.428
1016,9092.358
1017,9055.977
1018,9008.41
1019,8971.358
1020,8955.383
1021,8969.218
1022,9010.278
1023,9051.409
1024,9062.515
1025,9034.107
1026,8994.718
1027,8976.568
1028,8991.354
1029,9018.665
1030,9035.648
1031,9031.586
1032,9011.78
1033,8982.742
1034,8954.303
1035,8939.975
1036,8952.482
1037,8985.236
1038,9013.691
1039,9014.325
1040,8988.389
1041,8956.258
1042,8937.134
1043,8931.805
1044,8929.345
1045,8920.266
1046,8909.081
1047,8907.551
1048,8925.297
1049,8957.136
1050,8991.735
1051,9018.771
1052,9033.292
1053,9032.116
1054,9014.955
1055,8993.384
1056,8982.013
1057,8989.826
1058,9007.891
1059,9023.731
1060,9028.369
1061,9021.435
1062,9003.876
1063,8978.365
1064,8950.871
1065,8927.688
1066,8912.796
1067,8906.725
1068,8909.638
1069,8919.071
1070,8929.509
1071,8935.845
1072,8943.798
1073,8968.853
1074,9024.911
1075,9101.484
1076,9171.213
1077,9210.949
1078,9237.838
1079,9290.159
1080,9397.427
1081,9532.599
1082,9646.518
1083,9701.879
1084,9715.555
1085,9719.886
1086,9738.428
1087,9765.906
1088,9791.14
1089,9805.865
1090,9808.748
1091,9799.482
1092,9779.757
1093,9754.718
1094,9729.683
1095,9704.106
1096,9670.009
1097,9619.382
1098,9553.159
1099,9480.568
1100,9410.903
1101,9350.659
1102,9304.435
1103,9275.469
1104,9256.452
1105,9235.01
1106,9202.521
1107,9170.643
1108,9157.802
1109,9175.161
1110,9207.45
1111,9233.429
1112,9239.816
1113,9233.034
1114,9222.482
1115,9217.193
1116,9225.574
1117,9255.507
1118,9300.192
1119,9335.373
1120,9337.185
1121,9304.965
1122,9257.246
1123,9211.47
1124,9168.788
1125,9121.105
1126,9061.933
1127,8995.273
1128,8929.128
1129,8869.55
1130,8814.908
1131,8761.674
1132,8708.762
1133,8661.311
1134,8625.361
1135,8601.117
1136,8578.983
1137,8548.806
1138,8510.922
1139,8477.421
1140,8460.067
1141,8457.413
1142,8458.165
1143,8452.073
1144,8439.224
1145,8424.725
1146,8412.958
1147,8404.629
1148,8399.306
1149,8396.441
1150,8395.129
1151,8394.383
1152,8391.763
1153,8382.072
1154,8360.057
1155,8328.568
1156,8300.236
1157,8287.017
1158,8281.918
1159,8263.304
1160,8212.837
1161,8142.02
1162,8076.856
1163,8037.917
1164,8019.818
1165,8009.544
1166,7996.725
1167,7978.312
1168,7952.584
1169,7922.853
1170,7900.882
1171,7898.566
1172,7911.052
1173,7916.105
1174,7893.62
1175,7857.148
1176,7841.743
1177,7873.907
1178,7925.257
1179,7946.527
1180,7906.473
1181,7836.61
1182,7781.956
1183,7768.39
1184,7783.466
1185,7810.275
1186,7835.276
1187,7848.945
1188,7842.804
1189,7819.216
1190,7788.265
1191,7760.083
1192,7744.061
1193,7749.279
1194,7778.995
1195,7815.194
1196,7835.084
1197,7826.895
1198,7801.223
1199,7771.285
1200,7747.185
1201,7735.396
1202,7741.275
1203,7758.8
1204,7774.26
1205,7775.95
1206,7765.385
1207,7749.071
1208,7732.182
1209,7715.565
1210,7699.203
1211,7682.659
1212,7664.775
1213,7644.552
1214,7625.995
1215,7618.017
1216,7628.229
1217,7650.03
1218,7669.043
1219,7674.574
1220,7673.398
1221,7677.337
1222,7692.788
1223,7713.202
1224,7730.219
1225,7738.389
1226,7736.025
1227,7722.416
1228,7706.527
1229,7704.136
1230,7726.917
1231,7761.081
1232,7783.393
1233,7779.781
1234,7763.359
1235,7752.047
1236,7751.956
1237,7751.149
1238,7736.995
1239,7710.37
1240,7683.169
1241,7667.296
1242,7672.485
1243,7707.55
1244,7771.002
1245,7827.426
1246,7834.833
1247,7782.691
1248,7712.149
1249,7667.256
1250,7657.749
1251,7664.101
1252,7668.901
1253,7676.528
1254,7700.795
1255,7746.771
1256,7790.689
1257,7803.224
1258,7779.199
1259,7751.984
1260,7756.132
1261,7789.02
1262,7817.953
1263,7815.242
1264,7791.328
1265,7771.824
1266,7772.436
1267,7779.757
1268,7775.341
1269,7753.267
1270,7725.156
1271,7703.402
1272,7693.226
1273,7694.875
1274,7707.149
1275,7721.744
1276,7728.058
1277,7722.579
1278,7718.405
1279,7730.467
1280,7757.847
1281,7781.951
1282,7785.871
1283,7776.846
1284,7775.047
1285,7794.705
1286,7826.848
1287,7857.002
1288,7874.577
1289,7875.614
1290,7857.175
1291,7822.412
1292,7779.385
1293,7737.595
1294,7714.16
1295,7728.977
1296,7786.164
1297,7850.315
1298,7880.879
1299,7866.99
1300,7831.523
1301,7798.386
1302,7784.131
1303,7801.483
1304,7852.565
1305,7902.174
1306,7907.463
1307,7863.327
1308,7822.055
1309,7836.096
1310,7897.448
1311,7956.421
1312,7973.457
1313,7960.94
1314,7946.483
1315,7947.036
1316,7958.85
1317,7975.971
1318,7995.308
1319,8016.229
1320,8037.539
1321,8054.294
1322,8060.18
1323,8053.766
1324,8045.062
1325,8045.295
1326,8055.692
1327,8067.433
1328,8072.338
1329,8069.935
1330,8063.052
1331,8056.678
1332,8061.506
1333,8088.696
1334,8135.273
1335,8182.514
1336,8212.085
1337,8215.479
1338,8188.8
1339,8136.563
1340,8087.434
1341,8073.553
1342,8098.549
1343,8132.694
1344,8148.005
1345,8146.506
1346,8144.782
1347,8151.592
1348,8152.564
1349,8129.856
1350,8089.347
1351,8064.487
1352,8084.057
1353,8127.423
1354,8150.593
1355,8130.682
1356,8104.091
1357,8115.995
1358,8169.287
1359,8220.634
1360,8231.882
1361,8219.187
1362,8222.245
1363,8259.824
1364,8298.056
1365,8296.882
1366,8259.941
1367,8233.41
1368,8256.036
1369,8310.332
1370,8357.813
1371,8377.968
1372,8388.542
1373,8411.034
1374,8447.693
1375,8484.967
1376,8510.71
1377,8522.004
1378,8518.803
1379,8507.396
1380,8504.863
1381,8526.604
1382,8555.261
1383,8552.07
1384,8494.404
1385,8420.266
1386,8380.588
1387,8385.055
1388,8389.541
1389,8353.423
1390,8294.925
1391,8260.934
1392,8275.617
1393,8303.057
1394,8299.351
1395,8258.646
1396,8211.21
1397,8184.194
1398,8179.649
1399,8191.115
1400,8208.225
1401,8213.68
1402,8191.617
1403,8152.343
1404,8123.243
1405,8122.84
1406,8137.793
1407,8148.227
1408,8146.815
1409,8141.07
1410,8138.429
1411,8139.802
1412,8143.398
1413,8148.012
1414,8153.72
1415,8160.585
1416,8166.216
1417,8166.393
1418,8159.098
1419,8151.033
1420,8150.894
1421,8162.434
1422,8183.141
1423,8208.901
1424,8227.166
1425,8221.761
1426,8188.021
1427,8145.909
1428,8117.545
1429,8110.428
1430,8121.438
1431,8144.856
1432,8166.421
1433,8170.261
1434,8152.098
1435,8121.161
1436,8088.767
1437,8074.218
1438,8099.687
1439,8162.607
1440,8215.044
1441,8209.535
1442,8157.557
1443,8106.419
1444,8089.552
1445,8098.492
1446,8117.697
1447,8141.013
1448,8170.928
1449,8208.127
1450,8243.62
1451,8265.747
1452,8267.691
1453,8249.22
1454,8213.117
1455,8180.174
1456,8178.877
1457,8221.664
1458,8289.26
1459,8359.071
1460,8413.607
1461,8438.542
1462,8430.074
1463,8414.191
1464,8420.486
1465,8447.433
1466,8466.508
1467,8456.771
1468,8431.908
1469,8413.996
1470,8411.994
1471,8419.464
1472,8429.033
1473,8433.195
1474,8424.58
1475,8408.828
1476,8411.776
1477,8454.705
1478,8509.165
1479,8523.498
1480,8480.255
1481,8431.493
1482,8431.317
1483,8464.166
1484,8472.313
1485,8422.889
1486,8349.154
1487,8292.696
1488,8260.838
1489,8234.993
1490,8205.335
1491,8192.694
1492,8222.273
1493,8280.979
1494,8320.541
1495,8306.383
1496,8264.558
1497,8235.447
1498,8233.556
1499,8245.212
1500,8257.58
1501,8268.784
1502,8280.186
1503,8291.307
1504,8299.362
1505,8302.478
1506,8304.805
1507,8312.479
1508,8325.724
1509,8336.325
1510,8337.222
1511,8333.036
1512,8332.915
1513,8340.276
1514,8349.497
1515,8354.761
1516,8354.67
1517,8349.763
1518,8342.637
1519,8339.383
1520,8344.885
1521,8352.113
1522,8348.657
1523,8335.23
1524,8336.093
1525,8372.838
1526,8425.369
1527,8453.675
1528,8440.978
1529,8413.547
1530,8399.192
1531,8399.767
1532,8404.498
1533,8410.494
1534,8429.543
1535,8471.986
1536,8523.406
1537,8557.499
1538,8561.984
1539,8550.069
1540,8536.713
1541,8529.351
1542,8531.878
1543,8543.86
1544,8557.453
1545,8564.769
1546,8563.174
1547,8552.411
1548,8537.758
1549,8533.305
1550,8551.953
1551,8593.159
1552,8650.799
1553,8710.479
1554,8745.808
1555,8736.479
1556,8703.38
1557,8681.598
1558,8680.636
1559,8676.812
1560,8651.266
1561,8620.505
1562,8611.326
1563,8628.761
1564,8653.34
1565,8668.645
1566,8676.769
1567,8684.798
1568,8702.982
1569,8744.596
1570,8811.407
1571,8865.442
1572,8863.424
1573,8814.016
1574,8766.999
1575,8755.614
1576,8764.535
1577,8771.916
1578,8775.911
1579,8787.414
1580,8810.136
1581,8831.943
1582,8840.479
1583,8839.104
1584,8838.958
1585,8844.22
1586,8847.447
1587,8843.089
1588,8844.008
1589,8869.567
1590,8920.466
1591,8973.923
1592,9011.47
1593,9040.568
1594,9075.003
1595,9111.352
1596,9130.051
1597,9120.198
1598,9099.836
1599,9091.004
1600,9094.656
1601,9097.451
1602,9093.875
1603,9095.987
1604,9115.213
1605,9139.376
1606,9145.269
1607,9124.827
1608,9092.833
1609,9064.98
1610,9051.702
1611,9060.967
1612,9081.03
1613,9079.912
1614,9041.857
1615,9007.627
1616,9024.935
1617,9080.741
1618,9120.418
1619,9115.242
1620,9092.512
1621,9082.945
1622,9090.323
1623,9106.532
1624,9122.061
1625,9125.628
1626,9110.305
1627,9088.475
1628,9076.826
1629,9076.295
1630,9074.566
1631,9068.388
1632,9078.396
1633,9124.799
1634,9191.229
1635,9242.748
1636,9259.284
1637,9243.348
1638,9200.683
1639,9143.479
1640,9085.711
1641,9037.98
1642,9007.893
1643,8999.534
1644,9008.115
1645,9027.786
1646,9056.022
1647,9092.013
1648,9135.571
1649,9187.415
1650,9240.718
1651,9255.32
1652,9186.87
1653,9074.349
1654,9024.348
1655,9085.271
1656,9168.206
1657,9180.629
1658,9143.068
1659,9124.005
1660,9140.077
1661,9144.822
1662,9114.521
1663,9117.772
1664,9231.425
1665,9394.298
1666,9457.94
1667,9372.674
1668,9261.497
1669,9235.994
1670,9261.506
1671,9260.757
1672,9223.764
1673,9199.418
1674,9212.748
1675,9227.984
1676,9208.39
1677,9172.269
1678,9160.435
1679,9180.799
1680,9203.871
1681,9207.685
1682,9199.671
1683,9192.562
1684,9196.078
1685,9218.075
1686,9254.583
1687,9285.184
1688,9294.974
1689,9294.795
1690,9300.15
1691,9309.422
1692,9310.057
1693,9299.473
1694,9291.666
1695,9298.317
1696,9313.925
1697,9328.875
1698,9342.745
1699,9361.77
1700,9387.379
1701,9412.038
1702,9426.615
1703,9418.986
1704,9378.198
1705,9325.6
1706,9307.501
1707,9336.713
1708,9360.919
1709,9337.59
1710,9311.287
1711,9349.254
1712,9441.973
1713,9519.385
1714,9542.873
1715,9536.849
1716,9527.362
1717,9513.52
1718,9487.726
1719,9465.689
1720,9480.493
1721,9527.217
1722,9532.139
1723,9445.94
1724,9363.186
1725,9407.024
1726,9539.153
1727,9610.17
1728,9556.615
1729,9456.683
1730,9386.929
1731,9366.405
1732,9398.38
1733,9467.522
1734,9547.077
1735,9601.816
1736,9585.289
1737,9483.653
1738,9390.551
1739,9404.646
1740,9485.98
1741,9529.664
1742,9520.843
1743,9544.31
1744,9633.764
1745,9682.669
1746,9595.161
1747,9473.122
1748,9482.655
1749,9606.127
1750,9671.12
1751,9605.892
1752,9534.172
1753,9560.995
1754,9618.362
1755,9603.199
1756,9540.2
1757,9530.782
1758,9595.928
1759,9649.3
1760,9632.447
1761,9589.329
1762,9574.505
1763,9587.944
1764,9607.433
1765,9622.6
1766,9633.725
1767,9637.749
1768,9624.666
1769,9591.17
1770,9565.241
1771,9579.156
1772,9625.214
1773,9673.073
1774,9704.971
1775,9718.386
1776,9708.786
1777,9664.585
1778,9584.436
1779,9528.923
1780,9571.38
1781,9670.719
1782,9705.86
1783,9643.151
1784,9576.459
1785,9576.913
1786,9618.812
1787,9662.899
1788,9698.05
1789,9723.592
1790,9727.729
1791,9690.144
1792,9619.403
1793,9569.952
1794,9581.627
1795,9634
1796,9693.656
1797,9721.49
1798,9679.864
1799,9597.527
1800,9557.362
1801,9592.063
1802,9652.184
1803,9690.677
1804,9691.334
1805,9650.33
1806,9605.672
1807,9608.622
1808,9654.49
1809,9695.674
1810,9708.6
1811,9706.221
1812,9707.762
1813,9741.808
1814,9823.314
1815,9881.646
1816,9828.601
1817,9725.126
1818,9726.78
1819,9846.708
1820,9923.912
1821,9869.381
1822,9778.717
1823,9750.913
1824,9790.396
1825,9871.597
1826,9930.256
1827,9887.76
1828,9778.856
1829,9741.926
1830,9820.208
1831,9893.776
1832,9879.271
1833,9850.268
1834,9885.218
1835,9920.165
1836,9852.986
1837,9729.282
1838,9685.484
1839,9736.359
1840,9759.634
1841,9712.144
1842,9718.829
1843,9856.22
1844,9962.61
1845,9868.145
1846,9692.472
1847,9654.627
1848,9757.913
1849,9857.758
1850,9880.18
1851,9837.696
1852,9760.732
1853,9705.424
1854,9703.754
1855,9692.971
1856,9610.827
1857,9527.128
1858,9551.462
1859,9662.578
1860,9756.528
1861,9794.323
1862,9807.575
1863,9800.997
1864,9726.345
1865,9582.625
1866,9522.894
1867,9670.517
1868,9855.146
1869,9846.419
1870,9708.492
1871,9649.982
1872,9698.699
1873,9730.643
1874,9704.672
1875,9696.663
1876,9738.759
1877,9752.146
1878,9683.581
1879,9619.741
1880,9654.052
1881,9739.323
1882,9785.178
1883,9779.16
1884,9753.099
1885,9726.119
1886,9705.402
1887,9692.214
1888,9680.31
1889,9667.988
1890,9664.278
1891,9677.019
1892,9705.529
1893,9743.302
1894,9762.399
1895,9733.928
1896,9682.641
1897,9658.816
1898,9681.671
1899,9744.747
1900,9795.504
1901,9731.035
1902,9556.479
1903,9463.719
1904,9555.454
1905,9663.244
1906,9635.073
1907,9545.488
1908,9502.85
1909,9492.743
1910,9464.599
1911,9447.889
1912,9508.73
1913,9612.344
1914,9648.181
1915,9593.345
1916,9523.907
1917,9487.825
1918,9480.636
1919,9500.122
1920,9559.357
1921,9656.323
1922,9733.173
1923,9739.054
1924,9710.89
1925,9704.044
1926,9720.279
1927,9738.044
1928,9730.317
1929,9670.269
1930,9587.651
1931,9555.922
1932,9573.921
1933,9557.062
1934,9484.564
1935,9438.425
1936,9456.928
1937,9470.851
1938,9435.416
1939,9412.177
1940,9455.259
1941,9517.121
1942,9536.476
1943,9511.823
1944,9463.024
1945,9419.979
1946,9411.131
1947,9401
1948,9322.869
1949,9219.696
1950,9215.618
1951,9312.757
1952,9389.15
1953,9401.448
1954,9415.796
1955,9458.973
1956,9479.355
1957,9458.944
1958,9468.618
1959,9530.946
1960,9501.058
1961,9291.802
1962,9130.836
1963,9234.388
1964,9428.702
1965,9470.366
1966,9387.961
1967,9300.468
1968,9236.961
1969,9186.744
1970,9166
1971,9203.311
1972,9279.288
1973,9341.332
1974,9365.533
1975,9353.998
1976,9311.892
1977,9246.862
1978,9172.179
1979,9108.096
1980,9072.321
1981,9077.758
1982,9125.535
1983,9195.704
1984,9249.571
1985,9212.479
1986,9074.832
1987,9011.275
1988,9126.507
1989,9210.147
1990,9088.64
1991,8958.646
1992,9023.834
1993,9133.488
1994,9093.55
1995,8997.554
1996,9001.66
1997,9071.22
1998,9111.165
1999,9111.909
2000,9096.446
2001,9047.917
2002,8938.56
2003,8829.128
2004,8818.585
2005,8868.149
2006,8862.034
2007,8831.845
2008,8903.21
2009,9018.338
2010,8985.452
2011,8841.826
2012,8816.995
2013,8914.287
2014,8921.931
2015,8812.046
2016,8753.519
2017,8796.808
2018,8848.799
2019,8847.117
2020,8777.65
2021,8675.681
2022,8635.571
2023,8667.278
2024,8658.104
2025,8560.906
2026,8440.104
2027,8377.659
2028,8466.773
2029,8663.546
2030,8698.215
2031,8491.857
2032,8330.98
2033,8375.289
2034,8490.986
2035,8567.386
2036,8594.014
2037,8564.412
2038,8459.514
2039,8309.461
2040,8242.812
2041,8324.533
2042,8469.992
2043,8586.419
2044,8601.059
2045,8502.265
2046,8396.962
2047,8342.3
2048,8266.022
2049,8152.745
2050,8132.111
2051,8244.223
2052,8317.248
2053,8252.188
2054,8141.323
2055,8062.488
2056,8023.398
2057,8017.098
2058,8024.016
2059,8029.989
2060,8032.993
2061,8027.762
2062,8001.439
2063,7951.508
2064,7893.895
2065,7854.215
2066,7869.684
2067,7935.125
2068,7981.956
2069,7982.629
2070,7973.394
2071,7965.97
2072,7933.953
2073,7852.972
2074,7707.22
2075,7564.796
2076,7579.508
2077,7704.361
2078,7690.592
2079,7532.042
2080,7452.864
2081,7505.189
2082,7587.158
2083,7647.665
2084,7680.215
2085,7687.487
2086,7676.405
2087,7637.691
2088,7556.411
2089,7463.157
2090,7403.855
2091,7337.041
2092,7204.013
2093,7135.314
2094,7286.997
2095,7464.545
2096,7409.349
2097,7223.131
2098,7094.44
2099,7075.397
2100,7149.241
2101,7182.502
2102,7092.36
2103,7042.76
2104,7125.966
2105,7115.769
2106,6924.706
2107,6887.32
2108,7095.222
2109,7087.68
2110,6757.985
2111,6634.125
2112,6844.856
2113,6940.965
2114,6802.343
2115,6697.219
2116,6717.231
2117,6781.666
2118,6851.236
2119,6918.247
2120,6940.218
2121,6866.586
2122,6754.259
2123,6698.108
2124,6703.382
2125,6739.763
2126,6772.793
2127,6769.146
2128,6704.78
2129,6582.951
2130,6479.844
2131,6436.217
2132,6383.23
2133,6295.183
2134,6247.945
2135,6280.081
2136,6362.542
2137,6411.703
2138,6304.143
2139,6142.016
2140,6187.323
2141,6362.118
2142,6398.955
2143,6287.508
2144,6137.922
2145,6023.709
2146,5990.629
2147,6023.315
2148,6079.798
2149,6086.406
2150,5991.246
2151,5806.68
2152,5607.259
2153,5552.191
2154,5658.169
2155,5760.358
2156,5784.609
2157,5751.348
2158,5697.271
2159,5666.672
2160,5694.985
2161,5795.952
2162,5887.403
2163,5874.91
2164,5743.863
2165,5509.892
2166,5218.883
2167,4982.264
2168,5016.726
2169,5295.666
2170,5470.146
2171,5405.308
2172,5192.866
2173,5015.188
2174,5059.712
2175,5151.403
2176,5038.964
2177,4896.035
2178,4910.803
2179,4906.047
2180,4772.779
2181,4699.669
2182,4742.688
2183,4720.255
2184,4651.692
2185,4745.868
2186,4886.823
2187,4784.961
2188,4511.621
2189,4289.529
2190,4291.249
2191,4531.021
2192,4608.808
2193,4373.287
2194,4268.843
2195,4446.029
2196,4623.283
2197,4659.78
2198,4556.882
2199,4377.941
2200,4215.435
2201,4153.812
2202,4217.843
2203,4249.402
2204,4168.872
2205,4122.795
2206,4117.995
2207,3967.734
2208,3760.977
2209,3774.873
2210,3902.742
2211,3910.733
2212,3912.739
2213,4020.678
2214,4032.594
2215,3868.657
2216,3753.83
2217,3727.129
2218,3618.165
2219,3557.337
2220,3794.329
2221,4001.793
2222,3809.958
2223,3547.798
2224,3477.824
2225,3385.653
2226,3264.021
2227,3411.319
2228,3624.798
2229,3416.78
2230,3142.003
2231,3309.873
2232,3506.971
2233,3377.912
2234,3219.979
2235,3176.871
2236,3087.05
2237,2963.682
2238,2943.61
2239,2975.203
2240,2951.315
2241,2875.054
2242,2782.854
2243,2724.689
2244,2725.131
2245,2772.629
2246,2805.231
2247,2749.398
2248,2658.27
2249,2614.251
2250,2642.682
2251,2706.476
2252,2688.821
2253,2603.438
2254,2570.667
2255,2509.861
2256,2331.32
2257,2363.715
2258,2695.043
2259,2649.417
2260,2198.273
2261,2132.5
2262,2327.168
2263,2180.172
2264,1924.194
2265,1922.404
2266,2111.117
2267,2321.274
2268,2351.006
2269,2211.475
2270,2063.269
2271,1983.953
2272,1997.702
2273,2067.929
2274,2085.123
2275,1871.708
2276,1651.665
2277,1855.518
2278,2129.227
2279,2018.218
2280,1749.035
2281,1607.854
2282,1746.267
2283,1924.111
2284,1717.424
2285,1410.351
2286,1373.152
2287,1432.457
2288,1417.452
2289,1309.357
2290,1262.993
2291,1457.668
2292,1591.89
2293,1421.025
2294,1230.756
2295,1241.94
2296,1467.666
2297,1541.616
2298,1119.103
2299,842.3682
2300,1100.053
