400,17576.78
401,17528.43
402,17477.32
403,17447.92
404,17465.91
405,17545.64
406,17649.17
407,17723.56
408,17719.7
409,17642.1
410,17536.57
411,17449.54
412,17408.08
413,17401.88
414,17416.43
415,17438.72
416,17463.73
417,17489.05
418,17512.51
419,17535.46
420,17562.27
421,17597.34
422,17639.29
423,17674.53
424,17688
425,17668.33
426,17624.69
427,17573.48
428,17530.59
429,17504.14
430,17495.42
431,17505.42
432,17531.11
433,17560.79
434,17581.72
435,17583.43
436,17568.12
437,17542.42
438,17512.67
439,17480.7
440,17444.44
441,17401.74
442,17354.96
443,17315.58
444,17296.18
445,17304.72
446,17325.51
447,17335.18
448,17311.9
449,17256.27
450,17186.52
451,17121.18
452,17070.7
453,17030.92
454,16996.17
455,16962.03
456,16929.69
457,16901.91
458,16880.93
459,16862.34
460,16837.22
461,16796.8
462,16741.33
463,16684.94
464,16642.86
465,16624.73
466,16620.05
467,16613.79
468,16592.45
469,16556.41
470,16513.71
471,16472.33
472,16437.38
473,16410.49
474,16393.07
475,16385.11
476,16382.7
477,16381.29
478,16376.48
479,16364.75
480,16342.96
481,16308.51
482,16269.33
483,16242.93
484,16246.98
485,16283.26
486,16322.11
487,16330.28
488,16283.98
489,16202.45
490,16117.22
491,16057.93
492,16033.66
493,16040.18
494,16072.85
495,16116.1
496,16139.51
497,16111.75
498,16017.84
499,15891.12
500,15773.72
501,15701.82
502,15671.42
503,15661.59
504,15652.27
505,15639.71
506,15634.67
507,15648.22
508,15678.03
509,15697.09
510,15675.83
511,15596.52
512,15488.68
513,15393.62
514,15348.54
515,15353.81
516,15389.68
517,15436.29
518,15473.85
519,15482.69
520,15443.31
521,15352.13
522,15241.52
523,15148.59
524,15102.85
525,15097.29
526,15113.83
527,15134.67
528,15144
529,15127.39
530,15071.01
531,14980.7
532,14886.72
533,14820.63
534,14799.38
535,14803.8
536,14809.3
537,14794.91
538,14758.19
539,14702.77
540,14633.01
541,14562.58
542,14511.21
543,14498.05
544,14521.25
545,14552.65
546,14562.54
547,14535.89
548,14493.38
549,14460.95
550,14457.05
551,14462.83
552,14447.83
553,14385.82
554,14295.45
555,14222.99
556,14213.28
557,14263.46
558,14315.77
559,14309.86
560,14222.5
561,14110.69
562,14041.63
563,14062.23
564,14133.06
565,14191.76
566,14183.27
567,14114.72
568,14025.6
569,13954.39
570,13916.58
571,13905.78
572,13914.65
573,13932.37
574,13941.96
575,13925.9
576,13875.64
577,13811.84
578,13760.99
579,13744.5
580,13751.52
581,13758.63
582,13744.01
583,13707.16
584,13662.79
585,13625.61
586,13599.77
587,13576.09
588,13544.61
589,13502.92
590,13465.68
591,13449.78
592,13464.5
593,13487.09
594,13486.47
595,13437.02
596,13355.98
597,13281.24
598,13248.54
599,13257.9
600,13279.28
601,13282.23
602,13255
603,13212.8
604,13172.83
605,13145.44
606,13123.9
607,13098.86
608,13064.02
609,13026.88
610,12998.81
611,12989.52
612,12995.05
613,13004.57
614,13007.72
615,13002.66
616,12994.75
617,12989.5
618,12988.58
619,12988.33
620,12984.69
621,12975.13
622,12960.72
623,12943.02
624,12922.92
625,12898.41
626,12866.74
627,12825.82
628,12778.42
629,12729.45
630,12683.99
631,12650.06
632,12637.77
633,12656.65
634,12697
635,12726.26
636,12710.88
637,12641.28
638,12553.86
639,12490.05
640,12475.99
641,12489.19
642,12497.61
643,12475.82
644,12433.86
645,12393.63
646,12374.53
647,12372.75
648,12371.79
649,12356
650,12326.27
651,12297.76
652,12285.72
653,12291.64
654,12298.45
655,12287.92
656,12251.9
657,12203.57
658,12158.79
659,12129.69
660,12115.89
661,12114.4
662,12121.48
663,12129.31
664,12128.7
665,12111.83
666,12083.5
667,12055.3
668,12038.13
669,12030.32
670,12019.86
671,11994.82
672,11954.69
673,11913.18
674,11884.7
675,11872.49
676,11858.82
677,11823.76
678,11759.47
679,11692.68
680,11656.19
681,11671.19
682,11707.17
683,11719.23
684,11670.92
685,11584.17
686,11505.95
687,11479.2
688,11501.53
689,11541.57
690,11568.6
691,11572.2
692,11560.87
693,11543.68
694,11524.42
695,11499.78
696,11466
697,11424.78
698,11388.61
699,11371.13
700,11377.95
701,11391.46
702,11390
703,11358.32
704,11308.52
705,11260.03
706,11229.82
707,11219.61
708,11225
709,11240.98
710,11255.85
711,11254.16
712,11221.92
713,11167.65
714,11117.89
715,11098.76
716,11112.63
717,11135.41
718,11142.03
719,11123.47
720,11095.45
721,11075.73
722,11074.8
723,11087.69
724,11107.39
725,11124.94
726,11125.26
727,11092.16
728,11017.93
729,10930.99
730,10869.45
731,10863.38
732,10894.43
733,10925.98
734,10925.52
735,10895.97
736,10858.67
737,10833.7
738,10823.51
739,10818.15
740,10807.58
741,10784.23
742,10742.85
743,10678.72
744,10601.55
745,10539.01
746,10519.43
747,10548.33
748,10593.76
749,10620.54
750,10611.1
751,10586.15
752,10571.35
753,10581.19
754,10597.8
755,10597.51
756,10564.84
757,10515.97
758,10474.79
759,10460.63
760,10469.58
761,10490.13
762,10510.94
763,10521.64
764,10512.27
765,10474.93
766,10421.04
767,10372.7
768,10350.2
769,10349.39
770,10348.76
771,10327.63
772,10286.85
773,10246.57
774,10226.91
775,10230.47
776,10240.09
777,10237.83
778,10216.66
779,10184.87
780,10151.82
781,10123.92
782,10102.25
783,10087.4
784,10077.81
785,10067.24
786,10048.88
787,10021.42
788,9998.833
789,9997.646
790,10025.57
791,10059.81
792,10070.98
793,10039.8
794,9990.528
795,9959.186
796,9972.538
797,10007.48
798,10024.09
799,9990.169
800,9925.077
801,9869.616
802,9859.016
803,9881.835
804,9903.056
805,9890.853
806,9848.166
807,9799.064
808,9766.251
809,9751.047
810,9739.282
811,9717.156
812,9682.382
813,9642.533
814,9605.298
815,9574.275
816,9548.952
817,9528.646
818,9513.029
819,9502.211
820,9496.277
821,9493.609
822,9490.225
823,9482.05
824,9468.631
825,9455.292
826,9447.812
827,9448.469
828,9453.075
829,9456.768
830,9455.236
831,9445.328
832,9424.064
833,9391.283
834,9353.765
835,9319.311
836,9292.567
837,9269.302
838,9243.73
839,9213.417
840,9186.781
841,9174.402
842,9181.631
843,9194.408
844,9194.217
845,9168.775
846,9131.951
847,9104.486
848,9101.956
849,9115.501
850,9128.986
851,9128.298
852,9109.964
853,9074.099
854,9022.995
855,8972.196
856,8942.165
857,8948.688
858,8976.251
859,8996.381
860,8984.877
861,8949.338
862,8911.865
863,8892.123
864,8889.391
865,8892.771
866,8892.284
867,8886.76
868,8879.815
869,8874.517
870,8867.91
871,8853.54
872,8826.058
873,8792.954
874,8769.781
875,8770.284
876,8784.938
877,8788.594
878,8758.436
879,8705.842
880,8666.618
881,8674.275
882,8722.902
883,8776.791
884,8801.429
885,8790.839
886,8761.767
887,8731.013
888,8706.596
889,8689.204
890,8679.305
891,8677.309
892,8683.592
893,8698.201
894,8714.825
895,8721.425
896,8706.593
897,8675.202
898,8647.299
899,8642.481
900,8659.855
901,8678.871
902,8679.021
903,8656.66
904,8624.701
905,8596.402
906,8578.009
907,8568.757
908,8567.494
909,8571.089
910,8574.411
911,8572.405
912,8563.854
913,8551.459
914,8538.058
915,8525.596
916,8515.107
917,8507.431
918,8499.719
919,8485.332
920,8457.746
921,8416.983
922,8369.772
923,8323.097
924,8283.064
925,8254.9
926,8243.41
927,8244.901
928,8247.138
929,8237.972
930,8214.666
931,8183.79
932,8152.292
933,8127.208
934,8115.661
935,8123.945
936,8141.527
937,8141.998
938,8100.328
939,8029.025
940,7974.948
941,7983.093
942,8043.133
943,8095.858
944,8084.162
945,8013.848
946,7944.185
947,7932.333
948,7976.445
949,8026.651
950,8034.836
951,7998.209
952,7949.129
953,7919.012
954,7914.628
955,7924.593
956,7937.57
957,7947.751
958,7953.19
959,7952.286
960,7946.542
961,7939.502
962,7934.477
963,7932.084
964,7931.296
965,7930.977
966,7929.224
967,7923.696
968,7912.628
969,7899.413
970,7890.167
971,7890.063
972,7896.568
973,7903.398
974,7904.945
975,7900.621
976,7892.072
977,7880.335
978,7862.353
979,7833.423
980,7791.527
981,7750.63
982,7730.543
983,7745.494
984,7780.16
985,7809.465
986,7814.258
987,7803.265
988,7793.456
989,7797.701
990,7811.74
991,7826.804
992,7835.756
993,7837.477
994,7832.257
995,7820.199
996,7800.79
997,7773.395
998,7739.364
999,7705.776
1000,7680.71
1001,7667.63
1002,7658.336
1003,7642.854
1004,7616.602
1005,7586.934
1006,7562.788
1007,7551.048
1008,7549.248
1009,7552.222
1010,7555.565
1011,7557.819
1012,7558.267
1013,7556.207
1014,7550.964
1015,7541.874
1016,7529.222
1017,7516.113
1018,7506.168
1019,7502.138
1020,7504.568
1021,7513.648
1022,7526.516
1023,7533.688
1024,7524.921
1025,7498.805
1026,7470.22
1027,7455.605
1028,7460.872
1029,7475.496
1030,7487.654
1031,7489.932
1032,7480.737
1033,7459.119
1034,7430.999
1035,7409.928
1036,7409.123
1037,7427.493
1038,7450.662
1039,7464.561
1040,7466.842
1041,7464.22
1042,7462.951
1043,7461.727
1044,7454.417
1045,7436.246
1046,7414.79
1047,7404.02
1048,7414.7
1049,7435.58
1050,7446.263
1051,7431.851
1052,7406.546
1053,7394.119
1054,7410.79
1055,7441.77
1056,7464.319
1057,7463.428
1058,7448.697
1059,7434.59
1060,7430.055
1061,7430.46
1062,7429.151
1063,7424.48
1064,7424.399
1065,7437.746
1066,7463.228
1067,7484.416
1068,7484.268
1069,7464.036
1070,7446.237
1071,7453.354
1072,7485.091
1073,7520.631
1074,7540.003
1075,7543.049
1076,7543.315
1077,7553.363
1078,7574.69
1079,7602.986
1080,7634.562
1081,7669.989
1082,7711.508
1083,7758.845
1084,7800.194
1085,7820.474
1086,7812.786
1087,7797.157
1088,7799.064
1089,7829.912
1090,7867.694
1091,7885.755
1092,7872.705
1093,7843.559
1094,7815.641
1095,7795.108
1096,7773.972
1097,7743.751
1098,7704.106
1099,7662.257
1100,7625.218
1101,7594.144
1102,7566.237
1103,7539.084
1104,7513.896
1105,7493.627
1106,7480.507
1107,7472.87
1108,7467.745
1109,7464.236
1110,7469.004
1111,7490.4
1112,7528.603
1113,7563.559
1114,7572.379
1115,7549.625
1116,7519.667
1117,7509.161
1118,7525.348
1119,7552.39
1120,7573.565
1121,7579.651
1122,7567.617
1123,7535.949
1124,7496.099
1125,7466.888
1126,7462.666
1127,7469.775
1128,7463.916
1129,7428.161
1130,7374.774
1131,7323.206
1132,7285.604
1133,7255.502
1134,7223.607
1135,7188.153
1136,7160.009
1137,7150.819
1138,7160.068
1139,7173.646
1140,7177.494
1141,7168.291
1142,7150.723
1143,7130.134
1144,7115.728
1145,7118.574
1146,7145.08
1147,7178.696
1148,7195.844
1149,7182.483
1150,7153.351
1151,7128.498
1152,7118.676
1153,7117.077
1154,7115.044
1155,7107.183
1156,7092.028
1157,7068.872
1158,7044.854
1159,7033.185
1160,7044.431
1161,7066.452
1162,7076.069
1163,7056.562
1164,7021.876
1165,6994.962
1166,6991.373
1167,7006.121
1168,7030.713
1169,7058.048
1170,7083.38
1171,7102.289
1172,7112.907
1173,7116.015
1174,7112.527
1175,7103.548
1176,7090.291
1177,7073.935
1178,7055.4
1179,7035.512
1180,7015.683
1181,6999.363
1182,6990.423
1183,6988.748
1184,6986.262
1185,6974.187
1186,6951.958
1187,6928.788
1188,6913.644
1189,6904.564
1190,6891.81
1191,6867.605
1192,6838.58
1193,6817.31
1194,6812.397
1195,6817.848
1196,6824.353
1197,6825.549
1198,6821.028
1199,6811.12
1200,6796.319
1201,6777.324
1202,6755.497
1203,6740.289
1204,6746.628
1205,6784.458
1206,6832.594
1207,6858.078
1208,6840.125
1209,6797.119
1210,6755.237
1211,6734.512
1212,6744.257
1213,6791.67
1214,6860.666
1215,6912.32
1216,6912.271
1217,6878.029
1218,6855.475
1219,6878.584
1220,6924.736
1221,6954.966
1222,6948.344
1223,6926.959
1224,6918.633
1225,6929.813
1226,6939.476
1227,6926.4
1228,6890.681
1229,6847.417
1230,6810.893
1231,6788.65
1232,6785.723
1233,6801.565
1234,6819.137
1235,6818.632
1236,6796.684
1237,6775.043
1238,6776.026
1239,6796.366
1240,6811.946
1241,6802.3
1242,6776.592
1243,6756.531
1244,6758.384
1245,6780.306
1246,6816.635
1247,6855.737
1248,6876.146
1249,6857.304
1250,6810.819
1251,6775.76
1252,6785.533
1253,6826.845
1254,6866.175
1255,6879.557
1256,6874.709
1257,6865.754
1258,6860.655
1259,6857.539
1260,6853.94
1261,6852.045
1262,6857.8
1263,6875.304
1264,6895.973
1265,6906.178
1266,6899.656
1267,6891.746
1268,6901.362
1269,6930.827
1270,6959.196
1271,6965.357
1272,6948.799
1273,6923.294
1274,6901.236
1275,6886.211
1276,6878.932
1277,6880.964
1278,6895.868
1279,6927.178
1280,6969.398
1281,7006.968
1282,7025.269
1283,7023.323
1284,7007.45
1285,6985.021
1286,6967.094
1287,6965.512
1288,6982.573
1289,7004.323
1290,7016.004
1291,7015.786
1292,7012.253
1293,7013.735
1294,7025.224
1295,7050.464
1296,7086.081
1297,7110.873
1298,7101.747
1299,7061.597
1300,7022.867
1301,7015.481
1302,7032.522
1303,7047.831
1304,7043.65
1305,7032.578
1306,7033.653
1307,7050.237
1308,7061.83
1309,7047.898
1310,7013.334
1311,6980.565
1312,6969.364
1313,6985.164
1314,7029.104
1315,7092.697
1316,7148.828
1317,7169.889
1318,7158.073
1319,7141.096
1320,7142.135
1321,7152.319
1322,7151.054
1323,7131.19
1324,7117.126
1325,7136.432
1326,7184.887
1327,7226.34
1328,7230.16
1329,7214.697
1330,7219.284
1331,7264.64
1332,7321.378
1333,7352.807
1334,7351.639
1335,7343.361
1336,7351.54
1337,7371.039
1338,7383.237
1339,7379.09
1340,7377.393
1341,7401.093
1342,7445.921
1343,7475.752
1344,7458.784
1345,7413.448
1346,7382.556
1347,7392.415
1348,7420.522
1349,7436.146
1350,7429.93
1351,7417.357
1352,7413.037
1353,7413.377
1354,7406.205
1355,7386.59
1356,7369.949
1357,7374.528
1358,7398.971
1359,7420.478
1360,7419.447
1361,7407.154
1362,7408.26
1363,7435.222
1364,7469.794
1365,7489.792
1366,7491.121
1367,7487.299
1368,7491.114
1369,7506.36
1370,7533.438
1371,7567.887
1372,7594.986
1373,7599.966
1374,7589.595
1375,7588.31
1376,7614.253
1377,7652.253
1378,7677.21
1379,7679.646
1380,7676.724
1381,7686.67
1382,7709.018
1383,7731.109
1384,7742.413
1385,7741.081
1386,7727.201
1387,7699.063
1388,7652.606
1389,7587.07
1390,7529.764
1391,7521.678
1392,7575.902
1393,7632.22
1394,7621.692
1395,7544.227
1396,7465.094
1397,7440.411
1398,7461.75
1399,7498.947
1400,7530.044
1401,7547.887
1402,7547.575
1403,7532.89
1404,7513.29
1405,7496.94
1406,7487.126
1407,7485.876
1408,7488.574
1409,7482.752
1410,7459.422
1411,7436.5
1412,7443.038
1413,7488.795
1414,7542.537
1415,7570.157
1416,7572.291
1417,7575.388
1418,7598.93
1419,7632.807
1420,7659.993
1421,7674.12
1422,7682.299
1423,7690.953
1424,7695.313
1425,7685.796
1426,7661.437
1427,7639.713
1428,7638.847
1429,7653.987
1430,7663.508
1431,7652.784
1432,7634.213
1433,7626.035
1434,7635.531
1435,7657.214
1436,7684.332
1437,7706.879
1438,7713.645
1439,7700.882
1440,7678.565
1441,7658.022
1442,7649.009
1443,7660.323
1444,7693.783
1445,7731.022
1446,7750.658
1447,7744.716
1448,7717.561
1449,7676.125
1450,7636.791
1451,7618.462
1452,7630.017
1453,7666.729
1454,7720.466
1455,7765.982
1456,7770.813
1457,7730.963
1458,7698.535
1459,7726.009
1460,7795.364
1461,7844.612
1462,7836.63
1463,7807.059
1464,7802.185
1465,7827.08
1466,7851.069
1467,7851.249
1468,7841.271
1469,7843.473
1470,7860.556
1471,7872.194
1472,7862.816
1473,7851.544
1474,7869.313
1475,7919.834
1476,7964.5
1477,7966.366
1478,7930.98
1479,7883.849
1480,7846.588
1481,7832.577
1482,7851.902
1483,7889.554
1484,7915.318
1485,7911.651
1486,7894.508
1487,7884.063
1488,7883.157
1489,7881.526
1490,7872.146
1491,7859.659
1492,7850.846
1493,7847.531
1494,7846.999
1495,7845.798
1496,7838.27
1497,7818.582
1498,7791.54
1499,7773.516
1500,7776.77
1501,7790.688
1502,7798.133
1503,7795.401
1504,7795.717
1505,7810.333
1506,7833.158
1507,7852.146
1508,7861.181
1509,7862.629
1510,7859.475
1511,7854.475
1512,7850.293
1513,7849.21
1514,7852.89
1515,7862.173
1516,7872.444
1517,7876.799
1518,7874.895
1519,7877.558
1520,7894.7
1521,7920.654
1522,7942.646
1523,7958.09
1524,7982.721
1525,8029.782
1526,8076.885
1527,8084.687
1528,8041.985
1529,7989.583
1530,7969.535
1531,7987.188
1532,8029.906
1533,8081
1534,8116.625
1535,8117.008
1536,8102.203
1537,8111.321
1538,8155.312
1539,8194.09
1540,8188.285
1541,8146.638
1542,8100.355
1543,8075.552
1544,8089.267
1545,8150.724
1546,8218.835
1547,8231.044
1548,8176.534
1549,8127.591
1550,8150.68
1551,8223.448
1552,8288.268
1553,8316.937
1554,8324.353
1555,8325.834
1556,8319.137
1557,8295.983
1558,8258.545
1559,8222.53
1560,8203.081
1561,8207.695
1562,8240.9
1563,8289.415
1564,8319.938
1565,8308.854
1566,8277.962
1567,8260.246
1568,8272.548
1569,8316.302
1570,8385.934
1571,8454.113
1572,8490.413
1573,8490.295
1574,8469.725
1575,8445.651
1576,8436.01
1577,8457.251
1578,8505.965
1579,8566.045
1580,8622.655
1581,8664.216
1582,8681.748
1583,8684.935
1584,8692.646
1585,8710.09
1586,8719.724
1587,8707.663
1588,8695.83
1589,8718.723
1590,8773.04
1591,8807.907
1592,8787.213
1593,8753.885
1594,8769.762
1595,8834.834
1596,8891.111
1597,8898.544
1598,8880.229
1599,8869.714
1600,8877.141
1601,8896.748
1602,8922.653
1603,8949.411
1604,8972.072
1605,8989.398
1606,9001.962
1607,9012.436
1608,9026.633
1609,9048.345
1610,9069.602
1611,9079.387
1612,9084.56
1613,9110.327
1614,9173.244
1615,9258.469
1616,9344.849
1617,9413.744
1618,9448.248
1619,9438.747
1620,9390.881
1621,9314.803
1622,9239.226
1623,9200.247
1624,9197.078
1625,9179.673
1626,9109.485
1627,9012.575
1628,8931.023
1629,8883.017
1630,8866.617
1631,8871.57
1632,8868.332
1633,8829.597
1634,8774.325
1635,8744.91
1636,8760.557
1637,8805.379
1638,8859.519
1639,8898.286
1640,8897.447
1641,8869.753
1642,8860.863
1643,8891.077
1644,8911.786
1645,8871.994
1646,8797.068
1647,8750.844
1648,8759.509
1649,8794.135
1650,8825.355
1651,8841.445
1652,8836.187
1653,8814.869
1654,8792.163
1655,8783.312
1656,8804.123
1657,8863.885
1658,8924.163
1659,8927.124
1660,8868.332
1661,8808.167
1662,8795.897
1663,8828.047
1664,8887.605
1665,8933.825
1666,8911.369
1667,8820.963
1668,8760.242
1669,8808.793
1670,8904.814
1671,8946.205
1672,8914.982
1673,8866.797
1674,8844.065
1675,8852.015
1676,8886.637
1677,8916.396
1678,8899.488
1679,8841.709
1680,8802.842
1681,8822.901
1682,8872.118
1683,8910.745
1684,8930.833
1685,8941.644
1686,8950.976
1687,8964.334
1688,8981.801
1689,8983.557
1690,8948.696
1691,8899.298
1692,8884.781
1693,8916.416
1694,8942.492
1695,8922.743
1696,8893.788
1697,8909.254
1698,8962.118
1699,9001.328
1700,9001.127
1701,8983.486
1702,8972.49
1703,8977.659
1704,9003.091
1705,9037.008
1706,9055.311
1707,9042.52
1708,9000.309
1709,8937.785
1710,8891.731
1711,8904.372
1712,8964.617
1713,9019.316
1714,9037.111
1715,9030.349
1716,9016.798
1717,9016.663
1718,9048.727
1719,9098.833
1720,9127.937
1721,9118.521
1722,9092.854
1723,9074.327
1724,9072.292
1725,9090.625
1726,9113.484
1727,9111.657
1728,9080.745
1729,9056.605
1730,9068.036
1731,9101.451
1732,9133.358
1733,9146.108
1734,9125.949
1735,9076.706
1736,9026.12
1737,8997.8
1738,8996.284
1739,9020.515
1740,9054.72
1741,9076.591
1742,9084.372
1743,9098.977
1744,9130.366
1745,9158.233
1746,9163.098
1747,9159.117
1748,9171.328
1749,9192.84
1750,9189.975
1751,9156.691
1752,9139.617
1753,9172.706
1754,9210.278
1755,9192.488
1756,9140.554
1757,9124.289
1758,9159.444
1759,9189.666
1760,9177.152
1761,9152.378
1762,9151.22
1763,9161.888
1764,9154.323
1765,9130.454
1766,9120.729
1767,9134.92
1768,9142.047
1769,9120.178
1770,9104.419
1771,9138.637
1772,9203.854
1773,9245.939
1774,9244.863
1775,9221.497
1776,9192.5
1777,9158.221
1778,9119.513
1779,9093.447
1780,9100.142
1781,9125.931
1782,9133.671
1783,9118.756
1784,9123.817
1785,9168.758
1786,9195.397
1787,9148.82
1788,9089.379
1789,9116.439
1790,9215.701
1791,9282.251
1792,9270.378
1793,9231.843
1794,9211.638
1795,9205.114
1796,9200.404
1797,9204.317
1798,9230.013
1799,9265.393
1800,9277.753
1801,9254.442
1802,9215.576
1803,9183.956
1804,9181.48
1805,9222.924
1806,9277.155
1807,9297.192
1808,9277.089
1809,9242.733
1810,9218.92
1811,9227.58
1812,9270.642
1813,9295.034
1814,9254.878
1815,9198.328
1816,9200.188
1817,9260.473
1818,9330.234
1819,9379.588
1820,9402.867
1821,9404.188
1822,9406.289
1823,9425.699
1824,9441.047
1825,9423.882
1826,9373.669
1827,9305.065
1828,9249.758
1829,9254.405
1830,9318.613
1831,9363.589
1832,9336.067
1833,9282.34
1834,9255.904
1835,9243.289
1836,9209.521
1837,9147.347
1838,9068.442
1839,9014.892
1840,9061.846
1841,9217.462
1842,9356.132
1843,9378.615
1844,9333.262
1845,9293.173
1846,9281.113
1847,9298.446
1848,9329.222
1849,9346.093
1850,9341.065
1851,9329.101
1852,9321.03
1853,9316.857
1854,9313.688
1855,9303.02
1856,9278.773
1857,9257.555
1858,9262.451
1859,9289.733
1860,9318.461
1861,9333.983
1862,9328.754
1863,9298.374
1864,9243.405
1865,9180.335
1866,9170.684
1867,9256.726
1868,9341.418
1869,9305.055
1870,9219.669
1871,9247.492
1872,9365.698
1873,9397.492
1874,9293.095
1875,9179.049
1876,9150.382
1877,9208.041
1878,9322.912
1879,9403.191
1880,9367.193
1881,9273.861
1882,9224.236
1883,9229.799
1884,9250.588
1885,9250.882
1886,9200.311
1887,9113.711
1888,9067.265
1889,9097.933
1890,9150.396
1891,9176.26
1892,9189.483
1893,9210.245
1894,9222.887
1895,9205.916
1896,9190.203
1897,9228.621
1898,9300.457
1899,9329.821
1900,9292.813
1901,9226.544
1902,9170.484
1903,9162.282
1904,9210.679
1905,9251.801
1906,9234.415
1907,9199.824
1908,9199.004
1909,9208.203
1910,9183.777
1911,9150.716
1912,9166.394
1913,9216.511
1914,9232.781
1915,9205.646
1916,9191.59
1917,9206.615
1918,9197.749
1919,9143.495
1920,9106.751
1921,9131.069
1922,9159.244
1923,9132.808
1924,9085.07
1925,9069.29
1926,9087.454
1927,9119.146
1928,9137.578
1929,9115.307
1930,9076.426
1931,9084.625
1932,9129.902
1933,9120.269
1934,9042.28
1935,9007.311
1936,9067.712
1937,9132.993
1938,9124.921
1939,9049.788
1940,8941.49
1941,8883.584
1942,8944.599
1943,9046.092
1944,9081.385
1945,9101.269
1946,9209.217
1947,9312.929
1948,9219.431
1949,8997.569
1950,8912.772
1951,8998.491
1952,9050.758
1953,8998.554
1954,8957.871
1955,8993.364
1956,9062.136
1957,9120.698
1958,9146.737
1959,9122.555
1960,9035.882
1961,8898.832
1962,8808.188
1963,8846.353
1964,8937.424
1965,8976.683
1966,8966.768
1967,8946.951
1968,8928.702
1969,8910.191
1970,8887.701
1971,8857.305
1972,8826.854
1973,8812.289
1974,8821.71
1975,8855.185
1976,8887.765
1977,8869.244
1978,8790.853
1979,8698.629
1980,8639.388
1981,8654.954
1982,8736.23
1983,8781.182
1984,8739.757
1985,8698.971
1986,8717.381
1987,8729.972
1988,8684.627
1989,8633.346
1990,8634.771
1991,8695.482
1992,8790.814
1993,8811.859
1994,8673.515
1995,8537.889
1996,8596.557
1997,8726.666
1998,8721.325
1999,8626.814
2000,8584.461
2001,8604.088
2002,8631.506
2003,8630.405
2004,8580.274
2005,8522.971
2006,8532.553
2007,8583.351
2008,8583.95
2009,8530.744
2010,8487.313
2011,8456.963
2012,8391.907
2013,8309.171
2014,8286.787
2015,8337.813
2016,8405.791
2017,8458.875
2018,8496.695
2019,8516.968
2020,8513.256
2021,8488.294
2022,8456.876
2023,8420.979
2024,8363.812
2025,8286.535
2026,8218.729
2027,8166.717
2028,8097.258
2029,8022.776
2030,8035.865
2031,8146.777
2032,8211.142
2033,8152.12
2034,8042.305
2035,7966.796
2036,8003.957
2037,8151.456
2038,8254.491
2039,8229.242
2040,8164.504
2041,8120.872
2042,8063.128
2043,7986.423
2044,7969.382
2045,8041.667
2046,8113.712
2047,8117.56
2048,8058.455
2049,7960.997
2050,7870.932
2051,7833.907
2052,7889.442
2053,7996.905
2054,7962.211
2055,7756.016
2056,7695.274
2057,7883.625
2058,7958.849
2059,7764.042
2060,7599.463
2061,7631.783
2062,7715.708
2063,7735.736
2064,7677.488
2065,7593.624
2066,7624.171
2067,7760.79
2068,7768.125
2069,7596.945
2070,7479.39
2071,7500.84
2072,7530.278
2073,7520.311
2074,7540.396
2075,7588.357
2076,7577.614
2077,7523.662
2078,7545.477
2079,7610.688
2080,7550.239
2081,7410.28
2082,7410.843
2083,7498.687
2084,7424.938
2085,7259.734
2086,7274.33
2087,7410.665
2088,7422.993
2089,7302.166
2090,7168.263
2091,7090.963
2092,7099.038
2093,7112.706
2094,7035.098
2095,6954.614
2096,6992.442
2097,7073.835
2098,7086.771
2099,7037.595
2100,6962.355
2101,6885.403
2102,6830.807
2103,6830.075
2104,6878.578
2105,6872.401
2106,6777.573
2107,6750.82
2108,6849.944
2109,6902.25
2110,6833.474
2111,6760.189
2112,6736.204
2113,6712.991
2114,6661.141
2115,6580.598
2116,6495.638
2117,6448.317
2118,6442.722
2119,6454.025
2120,6452.549
2121,6413.021
2122,6366.294
2123,6366.447
2124,6442.123
2125,6588.078
2126,6682.45
2127,6617.325
2128,6471.383
2129,6342.364
2130,6254.999
2131,6214.443
2132,6211.061
2133,6212.215
2134,6150.466
2135,6046.55
2136,6041.333
2137,6122.255
2138,6113.926
2139,6024.766
2140,6006.508
2141,6023.433
2142,5943.911
2143,5855.938
2144,5908.341
2145,5974.717
2146,5899.578
2147,5831.248
2148,5907.316
2149,5980.977
2150,5922.709
2151,5767.372
2152,5596.386
2153,5528.181
2154,5584.193
2155,5663.596
2156,5705.526
2157,5692.803
2158,5610.996
2159,5458.523
2160,5331.582
2161,5336.976
2162,5376.737
2163,5333.939
2164,5288.935
2165,5298.746
2166,5235.939
2167,5088.584
2168,5107.148
2169,5295.794
2170,5316.189
2171,5162.231
2172,5131.545
2173,5215.384
2174,5222.116
2175,5143.972
2176,5055.522
2177,5021.349
2178,5053.785
2179,5008.764
2180,4825.465
2181,4685.483
2182,4706.872
2183,4864.948
2184,5001.084
2185,4866.943
2186,4596.823
2187,4529.398
2188,4604.449
2189,4632.749
2190,4655.526
2191,4721.196
2192,4707.937
2193,4549.173
2194,4339.907
2195,4207.9
2196,4283.777
2197,4448.422
2198,4422.305
2199,4299.763
2200,4313.498
2201,4374.329
2202,4341.416
2203,4251.553
2204,4164.271
2205,4111.72
2206,4073.862
2207,3977.009
2208,3880.812
2209,3924.404
2210,3980.682
2211,3858.075
2212,3719.54
2213,3748.327
2214,3869.801
2215,3947.322
2216,3826.448
2217,3598.165
2218,3589.336
2219,3744.796
2220,3791.115
2221,3747.42
2222,3706.451
2223,3594.875
2224,3389.604
2225,3252.755
2226,3254.309
2227,3316.193
2228,3342.6
2229,3258.698
2230,3192.094
2231,3283.167
2232,3356.163
2233,3273.468
2234,3162.709
2235,3120.196
2236,3148.591
2237,3171.227
2238,3084.855
2239,2999.135
2240,3038.173
2241,3023.014
2242,2867.659
2243,2824.159
2244,2963.083
2245,3095.05
2246,3080.147
2247,2865.63
2248,2661.338
2249,2661.32
2250,2708.039
2251,2675.962
2252,2607.429
2253,2533.012
2254,2458.649
2255,2402.593
2256,2381.011
2257,2371.307
2258,2350.355
2259,2316.706
2260,2254.216
2261,2138.768
2262,2099.472
2263,2284.512
2264,2397.592
2265,2224.271
2266,2175.18
2267,2374.523
2268,2416.877
2269,2197.408
2270,1877.347
2271,1677.157
2272,1747.606
2273,1965.317
2274,2160.767
2275,2183.447
2276,2046.503
2277,1880.891
2278,1739.818
2279,1657.611
2280,1709.595
2281,1869.63
2282,1954.647
2283,1921.026
2284,1835.511
2285,1710.417
2286,1570.68
2287,1538.333
2288,1636.65
2289,1730.143
2290,1722.316
2291,1585.381
2292,1469.736
2293,1461.777
2294,1354.205
2295,1148.186
2296,1110.659
2297,1194.084
2298,1225.084
2299,1303.591
2300,1445.885
