400,37001.42
401,37003.91
402,36965.1
403,36898.87
404,36822.46
405,36750.65
406,36687.27
407,36632.96
408,36588.3
409,36553.52
410,36528.57
411,36513.34
412,36502.28
413,36479.35
414,36427.35
415,36337.27
416,36243.16
417,36193.27
418,36231.79
419,36336.61
420,36429.35
421,36430.5
422,36306.95
423,36122.61
424,35953.32
425,35862.91
426,35848.42
427,35883.36
428,35941.31
429,35994.7
430,36015.02
431,35973.96
432,35864.33
433,35723.85
434,35595.84
435,35515.77
436,35475.79
437,35452.83
438,35424.83
439,35384.97
440,35339.51
441,35295.09
442,35255.57
443,35219.17
444,35183.43
445,35145.52
446,35100.53
447,35042.9
448,34968.02
449,34885.66
450,34816.95
451,34782.97
452,34787.21
453,34801.13
454,34792.9
455,34738.26
456,34646.41
457,34535.96
458,34424.58
459,34318.93
460,34218.2
461,34121.52
462,34032.29
463,33960.41
464,33916.28
465,33904.11
466,33905.52
467,33897.07
468,33857.42
469,33783.68
470,33683.14
471,33563.37
472,33438.47
473,33330.64
474,33262.37
475,33241.93
476,33238.42
477,33214.3
478,33139.21
479,33029.76
480,32921.99
481,32850.06
482,32813.81
483,32781.62
484,32721.06
485,32619.77
486,32505.15
487,32409.13
488,32355.43
489,32330.24
490,32309.03
491,32269.25
492,32210.04
493,32144.58
494,32085.95
495,32036.13
496,31982.01
497,31909.44
498,31812.95
499,31712.7
500,31633.51
501,31594.56
502,31576.77
503,31544.98
504,31466.29
505,31349.66
506,31241.29
507,31188.11
508,31202.07
509,31230.82
510,31215.35
511,31115.58
512,30967.22
513,30824.91
514,30737.48
515,30701.64
516,30685.57
517,30658.03
518,30607.07
519,30542.09
520,30473.54
521,30407.42
522,30339.86
523,30265.6
524,30182.11
525,30099.98
526,30033.77
527,29995.81
528,29974.11
529,29941.37
530,29870.91
531,29762.99
532,29651.23
533,29571.13
534,29538.89
535,29523.06
536,29485.05
537,29395.15
538,29269.57
539,29139.51
540,29033.94
541,28957.57
542,28899.1
543,28847.27
544,28798.34
545,28758.15
546,28733.06
547,28722.84
548,28711.06
549,28678.97
550,28613.24
551,28527.67
552,28444.5
553,28383.82
554,28343.27
555,28306.72
556,28258.29
557,28194.25
558,28124.84
559,28061.02
560,28009.13
561,27965.69
562,27925.9
563,27885.25
564,27840.17
565,27787.4
566,27724.48
567,27656.09
568,27590.63
569,27535.96
570,27489.3
571,27437.67
572,27367.89
573,27277.79
574,27184.29
575,27106.13
576,27054.68
577,27017.28
578,26976.43
579,26917.7
580,26845.66
581,26772.41
582,26709.11
583,26655.11
584,26601.29
585,26538.6
586,26466.62
587,26395.76
588,26337.04
589,26295.28
590,26261.29
591,26223.96
592,26174.55
593,26113.9
594,26045.39
595,25972.54
596,25900.37
597,25834.53
598,25780.43
599,25739.02
600,25707.56
601,25683.13
602,25660.98
603,25633.69
604,25593.65
605,25535.38
606,25458.65
607,25364.04
608,25253.7
609,25136.94
610,25025.1
611,24929.14
612,24857.33
613,24816.63
614,24812.85
615,24833.31
616,24849.68
617,24833.61
618,24774.43
619,24686.38
620,24585.47
621,24486.21
622,24399.66
623,24336.31
624,24302.49
625,24287.63
626,24276.78
627,24256.03
628,24218.61
629,24160.99
630,24080.44
631,23985.17
632,23891.52
633,23815.63
634,23765.96
635,23741.73
636,23741.57
637,23756.63
638,23763.55
639,23737.44
640,23664.49
641,23566.09
642,23470.57
643,23401.19
644,23354.5
645,23317.99
646,23280.36
647,23240.48
648,23202.9
649,23171.73
650,23143.45
651,23107.8
652,23054.6
653,22981.58
654,22897.26
655,22810.84
656,22732.6
657,22675.06
658,22650.97
659,22662.81
660,22678.05
661,22656.89
662,22569.89
663,22444.59
664,22328.1
665,22262.23
666,22241.37
667,22234.2
668,22210.68
669,22164.08
670,22106.9
671,22051.92
672,22003.03
673,21953.07
674,21894.29
675,21826.84
676,21765.67
677,21727.28
678,21718.11
679,21715.81
680,21692.97
681,21630.2
682,21543.66
683,21459.44
684,21399.84
685,21361.3
686,21329.14
687,21289.27
688,21234.24
689,21160.9
690,21066.96
691,20966.17
692,20887.28
693,20858.82
694,20881.73
695,20919.76
696,20934.28
697,20902.34
698,20831.46
699,20732.69
700,20621.51
701,20526.28
702,20477.54
703,20492.77
704,20533.33
705,20545.69
706,20487.06
707,20383.02
708,20286.13
709,20243
710,20242.51
711,20240.66
712,20196
713,20109.99
714,20018.47
715,19957.02
716,19931
717,19912.07
718,19870.63
719,19797.11
720,19712.98
721,19642.18
722,19597.38
723,19567.13
724,19536.87
725,19497.18
726,19454.07
727,19416.47
728,19390.6
729,19371.17
730,19349.83
731,19319.15
732,19277.16
733,19224
734,19160.38
735,19092.36
736,19028.75
737,18977.69
738,18938.74
739,18905.43
740,18871.53
741,18837.92
742,18812.19
743,18801.74
744,18800.35
745,18784.86
746,18731.46
747,18637.62
748,18535.69
749,18461.07
750,18432.26
751,18431.09
752,18434.65
753,18424.9
754,18397.69
755,18351.44
756,18288.25
757,18224.69
758,18180.85
759,18169.75
760,18168.02
761,18140.43
762,18059.24
763,17948.47
764,17854.33
765,17817.45
766,17826.04
767,17839.2
768,17818.52
769,17760.77
770,17687.75
771,17621.09
772,17571.18
773,17538.39
774,17522.46
775,17516.7
776,17507.18
777,17479.8
778,17429.49
779,17363.82
780,17291.31
781,17220.92
782,17162.35
783,17125.33
784,17111.56
785,17105.03
786,17087.45
787,17047.05
788,16990.02
789,16925.62
790,16863.74
791,16816.66
792,16797.13
793,16810.74
794,16831.91
795,16826.68
796,16769.19
797,16677.17
798,16583.03
799,16515.7
800,16481.03
801,16475.3
802,16492.75
803,16510.75
804,16498.14
805,16428.29
806,16322.43
807,16230.9
808,16200.2
809,16222.11
810,16248.72
811,16233.8
812,16172.86
813,16097.1
814,16037.73
815,16000.99
816,15968.03
817,15919.55
818,15854.64
819,15794.05
820,15759.33
821,15755.12
822,15762.85
823,15762.55
824,15744.23
825,15713.89
826,15678.9
827,15644.99
828,15614.93
829,15591.1
830,15571.74
831,15546.16
832,15502.61
833,15437.61
834,15367.99
835,15313.61
836,15285.66
837,15270.96
838,15252.1
839,15217.82
840,15176.77
841,15141.59
842,15119.78
843,15099.85
844,15065.94
845,15008.61
846,14945.39
847,14900.9
848,14892.5
849,14903.06
850,14905.23
851,14877.18
852,14826.65
853,14771.26
854,14725.91
855,14689.38
856,14654.38
857,14614.81
858,14572.35
859,14531.92
860,14498.18
861,14473.58
862,14459.61
863,14456.75
864,14457.19
865,14449.02
866,14421.64
867,14376.69
868,14322.39
869,14266.87
870,14216.64
871,14177.23
872,14153.54
873,14143.47
874,14140.54
875,14138.28
876,14131.12
877,14114.06
878,14082.74
879,14041.07
880,13998.83
881,13965.37
882,13941.95
883,13923.76
884,13906.07
885,13887.75
886,13870.52
887,13856.1
888,13844.83
889,13835.88
890,13828.36
891,13819.95
892,13807.15
893,13786.65
894,13759.57
895,13730.97
896,13705.86
897,13685.6
898,13668.09
899,13651.08
900,13631
901,13603.02
902,13562.7
903,13515.08
904,13474.52
905,13455.09
906,13455.82
907,13460.76
908,13453.79
909,13429.12
910,13391.44
911,13345.81
912,13295.48
913,13241.85
914,13186.35
915,13134.07
916,13093.88
917,13074.25
918,13071.47
919,13069.25
920,13051.33
921,13014.67
922,12969.83
923,12927.78
924,12895.27
925,12874.78
926,12868.2
927,12868.9
928,12861.68
929,12831.74
930,12781.21
931,12728.94
932,12693.54
933,12674.55
934,12653.03
935,12610.35
936,12548.98
937,12491.28
938,12459.31
939,12455.48
940,12464.23
941,12469.9
942,12466.57
943,12456.9
944,12443.81
945,12428.95
946,12412.96
947,12396.37
948,12378.73
949,12358.79
950,12335.36
951,12308.17
952,12277.66
953,12244.7
954,12215.57
955,12200.54
956,12208.19
957,12224.43
958,12219.37
959,12166.59
960,12082.9
961,12013.37
962,11999.01
963,12032.83
964,12078.5
965,12102.07
966,12096.3
967,12069.15
968,12028.84
969,11984.7
970,11946.61
971,11922.98
972,11910.38
973,11899.67
974,11882.98
975,11861.99
976,11842.66
977,11829.53
978,11817.57
979,11797.93
980,11764.14
981,11724
982,11690.48
983,11673.79
984,11669.31
985,11667.53
986,11660.88
987,11650.89
988,11641.78
989,11635.54
990,11624.74
991,11599.49
992,11554.79
993,11503.75
994,11463.71
995,11446.1
996,11443.08
997,11442.87
998,11436.72
999,11424.52
1000,11407.75
1001,11386.66
1002,11358.59
1003,11320.39
1004,11272.5
1005,11223.19
1006,11181.79
1007,11156.22
1008,11148.07
1009,11157.08
1010,11179.9
1011,11200.62
1012,11200.25
1013,11168.52
1014,11125.15
1015,11096.34
1016,11097.36
1017,11111.2
1018,11114.92
1019,11095.42
1020,11064.47
1021,11037.71
1022,11024.04
1023,11017.81
1024,11011.54
1025,11000.88
1026,10987.4
1027,10973.24
1028,10960.25
1029,10949.73
1030,10942.83
1031,10936.4
1032,10921.57
1033,10889.61
1034,10846.24
1035,10813.24
1036,10811.96
1037,10839.2
1038,10868.95
1039,10875.86
1040,10856.59
1041,10824.8
1042,10794
1043,10770.99
1044,10758.37
1045,10757.78
1046,10763.32
1047,10765.14
1048,10754.82
1049,10733.47
1050,10706.15
1051,10678.68
1052,10660.67
1053,10663.02
1054,10690.9
1055,10726.01
1056,10744.08
1057,10729.61
1058,10695.07
1059,10658.45
1060,10633.08
1061,10620.81
1062,10621.7
1063,10633.05
1064,10646.86
1065,10654.57
1066,10651.88
1067,10640.78
1068,10623.75
1069,10602.7
1070,10578.9
1071,10553.65
1072,10529.88
1073,10511.94
1074,10504.15
1075,10509.94
1076,10532.08
1077,10572.64
1078,10627.41
1079,10688.9
1080,10750.11
1081,10807.26
1082,10857.85
1083,10898.89
1084,10925.19
1085,10930.94
1086,10915.14
1087,10892.63
1088,10881.44
1089,10890.63
1090,10907.89
1091,10917.94
1092,10913.25
1093,10899.71
1094,10884.27
1095,10865.26
1096,10830.02
1097,10766.27
1098,10683.46
1099,10611.21
1100,10577.08
1101,10574.52
1102,10574.03
1103,10549.57
1104,10506.04
1105,10463.2
1106,10437.94
1107,10431.42
1108,10439.55
1109,10456.66
1110,10471.4
1111,10471.18
1112,10451.53
1113,10428.14
1114,10419.57
1115,10431.44
1116,10447.26
1117,10448.84
1118,10432.51
1119,10411.87
1120,10400.68
1121,10398.7
1122,10394.07
1123,10375.75
1124,10343.86
1125,10304.85
1126,10264.85
1127,10227.33
1128,10194.81
1129,10167.96
1130,10140.2
1131,10103.21
1132,10052.52
1133,9993.545
1134,9933.268
1135,9879.731
1136,9842.767
1137,9831.98
1138,9846.021
1139,9871.271
1140,9893.798
1141,9904.166
1142,9896.3
1143,9866.203
1144,9826.096
1145,9796.074
1146,9791.128
1147,9800.957
1148,9807.505
1149,9799.336
1150,9784.975
1151,9776.612
1152,9778.167
1153,9777.924
1154,9762.761
1155,9730.196
1156,9690.593
1157,9654.729
1158,9628.18
1159,9612.5
1160,9608.08
1161,9606.731
1162,9596.098
1163,9567.896
1164,9533.105
1165,9508.362
1166,9502.804
1167,9504.766
1168,9499.15
1169,9481.331
1170,9464.285
1171,9462.108
1172,9475.098
1173,9489.215
1174,9490.6
1175,9474.959
1176,9444.113
1177,9401.672
1178,9361.659
1179,9342.063
1180,9352.268
1181,9371.701
1182,9373.405
1183,9346.149
1184,9310.223
1185,9289.174
1186,9290.724
1187,9303.723
1188,9316.398
1189,9323.275
1190,9323.362
1191,9316.196
1192,9304.296
1193,9291.399
1194,9280.049
1195,9268.367
1196,9253.495
1197,9234.3
1198,9213.18
1199,9192.991
1200,9177.56
1201,9171.835
1202,9179.915
1203,9194.473
1204,9200.449
1205,9185.889
1206,9158.717
1207,9134.375
1208,9123.2
1209,9119.066
1210,9112.646
1211,9102.338
1212,9100.041
1213,9118.309
1214,9153.921
1215,9188.181
1216,9203.757
1217,9202.275
1218,9195.722
1219,9193.403
1220,9191.69
1221,9183.228
1222,9166.676
1223,9155.064
1224,9163.095
1225,9189.271
1226,9211.273
1227,9207.331
1228,9181.028
1229,9153.79
1230,9144.144
1231,9151.031
1232,9166.124
1233,9182.416
1234,9196.848
1235,9207.092
1236,9210.863
1237,9205.951
1238,9190.591
1239,9170.161
1240,9155.861
1241,9157.036
1242,9168.896
1243,9180.677
1244,9184.317
1245,9180.773
1246,9172.86
1247,9163.747
1248,9157.179
1249,9156.639
1250,9159.907
1251,9159.903
1252,9151.039
1253,9139.47
1254,9136.439
1255,9148.662
1256,9167.897
1257,9182.893
1258,9186.429
1259,9177.733
1260,9157.182
1261,9134.388
1262,9126.449
1263,9146.252
1264,9177.965
1265,9194.331
1266,9180.054
1267,9154.929
1268,9144.764
1269,9157.449
1270,9175.758
1271,9181.529
1272,9169.011
1273,9141.062
1274,9102.956
1275,9071.699
1276,9068.104
1277,9099.783
1278,9143.411
1279,9171.825
1280,9175.114
1281,9162.637
1282,9144.49
1283,9128.237
1284,9120.082
1285,9124.274
1286,9137.624
1287,9155.174
1288,9172.35
1289,9185.273
1290,9190.19
1291,9184.547
1292,9166.762
1293,9137.576
1294,9111.415
1295,9107.714
1296,9134.271
1297,9169.721
1298,9188.833
1299,9185.992
1300,9177.884
1301,9179.87
1302,9184.772
1303,9173.638
1304,9136.808
1305,9097.891
1306,9087.422
1307,9110.308
1308,9132.461
1309,9119.919
1310,9082.646
1311,9060.899
1312,9084.938
1313,9134.781
1314,9175.767
1315,9190.027
1316,9192.234
1317,9199.927
1318,9214.852
1319,9225.238
1320,9221.821
1321,9212.844
1322,9212.957
1323,9228.772
1324,9248.021
1325,9256.431
1326,9256.257
1327,9266.351
1328,9301.96
1329,9347.731
1330,9375.205
1331,9368.724
1332,9347.099
1333,9334.42
1334,9341.822
1335,9365.993
1336,9401.346
1337,9430.547
1338,9430.733
1339,9393.22
1340,9350.336
1341,9340.693
1342,9367.58
1343,9392.944
1344,9381.992
1345,9345.932
1346,9318.296
1347,9321.921
1348,9347.845
1349,9381.359
1350,9409.498
1351,9421.316
1352,9408.612
1353,9384.024
1354,9370.044
1355,9378.86
1356,9393.735
1357,9393.616
1358,9377.021
1359,9363.872
1360,9372.277
1361,9399.355
1362,9433.114
1363,9462.77
1364,9480.698
1365,9480.355
1366,9468.707
1367,9465.872
1368,9488.466
1369,9528.335
1370,9568.057
1371,9594.672
1372,9604.779
1373,9596.874
1374,9580.865
1375,9576.025
1376,9596.323
1377,9628.447
1378,9650.947
1379,9654.445
1380,9650.171
1381,9650.134
1382,9651.531
1383,9641.894
1384,9614.931
1385,9587.697
1386,9582.063
1387,9597.841
1388,9606.074
1389,9580.864
1390,9537.548
1391,9511.549
1392,9521.546
1393,9541.942
1394,9541.25
1395,9515.746
1396,9488.053
1397,9477.261
1398,9477.313
1399,9473.734
1400,9460.991
1401,9449.603
1402,9450.689
1403,9462.466
1404,9474.72
1405,9478.855
1406,9472.451
1407,9454.678
1408,9432.984
1409,9424.606
1410,9443.366
1411,9475.741
1412,9496.854
1413,9492.822
1414,9473.195
1415,9450.657
1416,9439.609
1417,9455.731
1418,9505.899
1419,9562.651
1420,9590.772
1421,9578.984
1422,9546.312
1423,9512.36
1424,9486.553
1425,9473.91
1426,9476.604
1427,9490.761
1428,9511.916
1429,9538.354
1430,9570.351
1431,9603.946
1432,9619.623
1433,9595.152
1434,9535.869
1435,9479.188
1436,9458.826
1437,9473.672
1438,9509.264
1439,9551.345
1440,9586.152
1441,9601.137
1442,9596.885
1443,9581.943
1444,9563.704
1445,9545.789
1446,9531.303
1447,9526.197
1448,9539.048
1449,9574.883
1450,9622.074
1451,9664.295
1452,9689.168
1453,9689.671
1454,9662.306
1455,9625.875
1456,9608.73
1457,9622.909
1458,9648.195
1459,9662.609
1460,9667.066
1461,9676.772
1462,9699.228
1463,9719.452
1464,9719.516
1465,9700.786
1466,9681.363
1467,9677.873
1468,9698.497
1469,9748.691
1470,9814.941
1471,9861.47
1472,9859.488
1473,9827.563
1474,9800.691
1475,9796.474
1476,9805.392
1477,9815.855
1478,9818.644
1479,9805.694
1480,9780.269
1481,9768.453
1482,9795.042
1483,9840.682
1484,9859.277
1485,9826.347
1486,9774.521
1487,9743.63
1488,9743.797
1489,9762.699
1490,9786.632
1491,9799.318
1492,9785.037
1493,9750.507
1494,9723.086
1495,9723.542
1496,9742.881
1497,9764.887
1498,9780.42
1499,9788.043
1500,9787.162
1501,9779.323
1502,9766.791
1503,9754.145
1504,9748.861
1505,9757.106
1506,9776.452
1507,9801.43
1508,9824.752
1509,9836.59
1510,9829.689
1511,9814.757
1512,9809.456
1513,9821.862
1514,9844.894
1515,9870.596
1516,9894.432
1517,9913.313
1518,9923.231
1519,9918.629
1520,9895.824
1521,9866.767
1522,9850.609
1523,9859.68
1524,9893.989
1525,9949.876
1526,10004.55
1527,10026.14
1528,10004.12
1529,9967.362
1530,9946.223
1531,9947.65
1532,9967.152
1533,9997.231
1534,10025.06
1535,10039.44
1536,10047.55
1537,10065.28
1538,10092.46
1539,10099.87
1540,10062.06
1541,10007.23
1542,9988.309
1543,10023.98
1544,10073.7
1545,10096.44
1546,10091.13
1547,10074.18
1548,10059.75
1549,10058.13
1550,10076.73
1551,10106.01
1552,10129.74
1553,10139.75
1554,10139.63
1555,10133.74
1556,10125.39
1557,10117.47
1558,10110.86
1559,10103.81
1560,10095.59
1561,10091.31
1562,10097.8
1563,10118.42
1564,10152.6
1565,10195.68
1566,10227.09
1567,10223.41
1568,10192.33
1569,10171.25
1570,10185.67
1571,10216.28
1572,10235.59
1573,10239.67
1574,10243.21
1575,10256.11
1576,10273.69
1577,10289.91
1578,10310.93
1579,10350.68
1580,10406.09
1581,10437.48
1582,10408.88
1583,10356.48
1584,10351.99
1585,10417.09
1586,10490.1
1587,10513.25
1588,10502.23
1589,10499.8
1590,10522.1
1591,10551.68
1592,10575.91
1593,10613.03
1594,10687.85
1595,10784.08
1596,10846.88
1597,10843.65
1598,10815.84
1599,10815.13
1600,10839.9
1601,10852.35
1602,10831.13
1603,10792.15
1604,10755.76
1605,10738.36
1606,10754.06
1607,10795.74
1608,10824.37
1609,10809.12
1610,10775.26
1611,10764.76
1612,10787.64
1613,10821.14
1614,10845.67
1615,10857.21
1616,10855.21
1617,10842.2
1618,10822.92
1619,10806.28
1620,10809.72
1621,10845.62
1622,10881.43
1623,10865.81
1624,10793.67
1625,10721.83
1626,10695.7
1627,10692.85
1628,10674.53
1629,10635.75
1630,10599.92
1631,10581.71
1632,10571.56
1633,10558.19
1634,10548.55
1635,10558.67
1636,10588.18
1637,10611.99
1638,10611.3
1639,10607.04
1640,10629.62
1641,10666.29
1642,10665.87
1643,10607.83
1644,10554.76
1645,10571.49
1646,10624.96
1647,10633.08
1648,10574.09
1649,10514.41
1650,10509.95
1651,10539.07
1652,10560.25
1653,10557.39
1654,10535.08
1655,10506.01
1656,10499.93
1657,10540.39
1658,10589.02
1659,10582.26
1660,10524.5
1661,10502.64
1662,10572.52
1663,10664.43
1664,10689.4
1665,10653.51
1666,10623.29
1667,10630.75
1668,10646.71
1669,10642.74
1670,10625.29
1671,10611.42
1672,10610.66
1673,10625.86
1674,10653.58
1675,10676.02
1676,10676.66
1677,10662.85
1678,10651.87
1679,10651.8
1680,10660.22
1681,10673.3
1682,10684.67
1683,10687.82
1684,10680.15
1685,10661.34
1686,10641.76
1687,10646.54
1688,10687.92
1689,10725.19
1690,10710.95
1691,10667.91
1692,10663.5
1693,10714.31
1694,10752.77
1695,10724.03
1696,10664.66
1697,10633.66
1698,10648.33
1699,10695.53
1700,10756.56
1701,10804.03
1702,10815.81
1703,10800.15
1704,10774.04
1705,10746.61
1706,10720.75
1707,10698.31
1708,10679.33
1709,10665.16
1710,10664.61
1711,10687.33
1712,10718.37
1713,10723.6
1714,10695.9
1715,10680.5
1716,10715.82
1717,10777.26
1718,10822.91
1719,10843.42
1720,10854.18
1721,10861.09
1722,10851.94
1723,10818.28
1724,10777.22
1725,10751.6
1726,10744.09
1727,10743.38
1728,10745.18
1729,10756.88
1730,10779.52
1731,10785.05
1732,10743.92
1733,10686.92
1734,10680.02
1735,10736.27
1736,10795.92
1737,10813.46
1738,10806.25
1739,10800.47
1740,10790.38
1741,10755.73
1742,10708.04
1743,10693.94
1744,10732.74
1745,10771.13
1746,10757.09
1747,10715.31
1748,10697.5
1749,10721.11
1750,10774.44
1751,10835.75
1752,10866.63
1753,10840.5
1754,10790.08
1755,10760.38
1756,10755.07
1757,10752.64
1758,10743.43
1759,10733.81
1760,10735.65
1761,10773.51
1762,10863.55
1763,10948.92
1764,10946.47
1765,10857.41
1766,10758.35
1767,10702.67
1768,10694.74
1769,10728.21
1770,10774.17
1771,10800.2
1772,10798.49
1773,10775.7
1774,10746.94
1775,10737.17
1776,10753.82
1777,10759.65
1778,10725.66
1779,10705.42
1780,10771.46
1781,10871.11
1782,10864.66
1783,10733.93
1784,10637.15
1785,10680.16
1786,10772.79
1787,10806.54
1788,10789.4
1789,10773.47
1790,10773.47
1791,10774.08
1792,10765.53
1793,10748.24
1794,10724.28
1795,10698.28
1796,10675.9
1797,10666.3
1798,10679.14
1799,10707.99
1800,10733.16
1801,10742.5
1802,10736.42
1803,10723.78
1804,10736.29
1805,10797.64
1806,10849.2
1807,10807.1
1808,10708.82
1809,10684.21
1810,10769.57
1811,10862.16
1812,10880.11
1813,10830.45
1814,10740.95
1815,10669.33
1816,10675.89
1817,10724.55
1818,10717.81
1819,10640.42
1820,10577.88
1821,10581.42
1822,10611.91
1823,10630.54
1824,10653.35
1825,10703.85
1826,10742.3
1827,10701.19
1828,10608.91
1829,10581.62
1830,10657.46
1831,10740.47
1832,10752.39
1833,10706.62
1834,10638.09
1835,10605.95
1836,10668.24
1837,10768.33
1838,10779.87
1839,10693.42
1840,10631.14
1841,10657.3
1842,10709.92
1843,10730.66
1844,10725.53
1845,10712.45
1846,10694.96
1847,10672.5
1848,10664.31
1849,10701.8
1850,10762.71
1851,10762.03
1852,10669.48
1853,10570.79
1854,10542.92
1855,10584.15
1856,10669.96
1857,10740.24
1858,10729.04
1859,10664.74
1860,10634.5
1861,10658.01
1862,10682
1863,10670.93
1864,10626.62
1865,10563.64
1866,10522.85
1867,10540.49
1868,10604.73
1869,10687.12
1870,10746.53
1871,10738.36
1872,10674.98
1873,10616.22
1874,10592.44
1875,10592.54
1876,10598.41
1877,10583.26
1878,10536.96
1879,10511.68
1880,10554.92
1881,10606.61
1882,10577.04
1883,10470.69
1884,10346.65
1885,10268.55
1886,10301.65
1887,10431.74
1888,10536.03
1889,10538.8
1890,10480.6
1891,10411.3
1892,10362.35
1893,10354.6
1894,10372.03
1895,10388.24
1896,10393.08
1897,10385.09
1898,10368.09
1899,10350.23
1900,10346.11
1901,10377.28
1902,10437.99
1903,10475.94
1904,10457.91
1905,10410.42
1906,10362.36
1907,10315.81
1908,10268.76
1909,10232.89
1910,10224.47
1911,10255.76
1912,10333.02
1913,10404.51
1914,10377.22
1915,10268.05
1916,10215.45
1917,10264.49
1918,10303.52
1919,10265.89
1920,10217.32
1921,10217.26
1922,10245.6
1923,10270.75
1924,10283.66
1925,10282.04
1926,10264.78
1927,10233.4
1928,10211.97
1929,10234.54
1930,10278.04
1931,10274.42
1932,10211.14
1933,10138.75
1934,10097.28
1935,10105.49
1936,10152.55
1937,10170.39
1938,10118.59
1939,10054.6
1940,10034.83
1941,10044.48
1942,10056.5
1943,10071.13
1944,10093.68
1945,10098.97
1946,10055.59
1947,10011.76
1948,10054.05
1949,10122.72
1950,10051.27
1951,9871.911
1952,9816.69
1953,9930.278
1954,10002.24
1955,9933.759
1956,9842.604
1957,9817.974
1958,9842.109
1959,9879.56
1960,9884.543
1961,9831.799
1962,9777.144
1963,9776.556
1964,9800.016
1965,9800.117
1966,9776.907
1967,9748.061
1968,9730.165
1969,9737.754
1970,9769.381
1971,9812.504
1972,9831.564
1973,9778.31
1974,9675.852
1975,9608.127
1976,9601.026
1977,9616.515
1978,9622.71
1979,9600.072
1980,9554.115
1981,9527.456
1982,9539.087
1983,9558.423
1984,9551.711
1985,9490.244
1986,9380.602
1987,9320.579
1988,9380.331
1989,9495.783
1990,9584.7
1991,9596.118
1992,9512.941
1993,9436.162
1994,9464.898
1995,9516.511
1996,9474.773
1997,9381.001
1998,9327.926
1999,9348.368
2000,9440.178
2001,9527.45
2002,9510.627
2003,9419.854
2004,9352.253
2005,9329.256
2006,9323.149
2007,9300.011
2008,9226.143
2009,9131.747
2010,9094.703
2011,9140.715
2012,9246.814
2013,9347.275
2014,9341.161
2015,9230.601
2016,9125.11
2017,9085.996
2018,9113.536
2019,9182.804
2020,9242.116
2021,9242.637
2022,9143.222
2023,8982.508
2024,8907.857
2025,8946.424
2026,8936.311
2027,8837.487
2028,8824.076
2029,8946.358
2030,9019.872
2031,8949.526
2032,8832.788
2033,8744.12
2034,8682.115
2035,8648.493
2036,8665.202
2037,8729.934
2038,8789.866
2039,8802.271
2040,8755.685
2041,8666.447
2042,8598.776
2043,8587.03
2044,8594.014
2045,8592.163
2046,8590.71
2047,8582.493
2048,8518.756
2049,8414.82
2050,8423.874
2051,8575.599
2052,8622.533
2053,8457.532
2054,8310.854
2055,8319.599
2056,8368.374
2057,8358.829
2058,8277.666
2059,8168.525
2060,8159.156
2061,8272.02
2062,8334.208
2063,8256.528
2064,8119.827
2065,8012.038
2066,8005.417
2067,8075.507
2068,8059.754
2069,7940.28
2070,7912.913
2071,8033.374
2072,8155.189
2073,8180.784
2074,8090.398
2075,7915.103
2076,7737.638
2077,7632.352
2078,7658.156
2079,7793.525
2080,7941.479
2081,8014.186
2082,7942.071
2083,7775.399
2084,7652.676
2085,7636.485
2086,7723.15
2087,7787.135
2088,7656.816
2089,7458.451
2090,7449.958
2091,7578.825
2092,7654.02
2093,7607.204
2094,7449.272
2095,7346.337
2096,7458.569
2097,7607.478
2098,7573.868
2099,7448.501
2100,7362.638
2101,7276.486
2102,7155.234
2103,7106.229
2104,7195.733
2105,7306.649
2106,7329.353
2107,7238.693
2108,7078.831
2109,7000.019
2110,7047.909
2111,7089.318
2112,7073.739
2113,7076.188
2114,7116.271
2115,7146.037
2116,7144.086
2117,7115.875
2118,7068.063
2119,7005.087
2120,6905.893
2121,6749.454
2122,6638.355
2123,6693.574
2124,6775.292
2125,6695.333
2126,6521.524
2127,6393.911
2128,6430.917
2129,6650.059
2130,6789.883
2131,6675.786
2132,6444.399
2133,6241.254
2134,6150.233
2135,6174.362
2136,6216.602
2137,6246.514
2138,6307.854
2139,6361.409
2140,6308.183
2141,6190.559
2142,6127.045
2143,6108.398
2144,6073.281
2145,6023.254
2146,5974.447
2147,5907.176
2148,5828.175
2149,5854.955
2150,6006.357
2151,6032.077
2152,5865.487
2153,5800.805
2154,5881.63
2155,5815.803
2156,5629.892
2157,5631.196
2158,5759.756
2159,5740.404
2160,5613.144
2161,5543.037
2162,5527.381
2163,5519.06
2164,5522.908
2165,5531.374
2166,5472.132
2167,5315.31
2168,5129.98
2169,5022.567
2170,5123.619
2171,5350.849
2172,5444.391
2173,5398.083
2174,5355.02
2175,5303.494
2176,5185.098
2177,5059.234
2178,4999.193
2179,5007.635
2180,5031.704
2181,4933.441
2182,4719.886
2183,4614.718
2184,4654.565
2185,4687.24
2186,4709.309
2187,4787.422
2188,4734.102
2189,4379.102
2190,4152.309
2191,4384.585
2192,4622.177
2193,4569.399
2194,4485.507
2195,4463.791
2196,4334.922
2197,4180.714
2198,4254.658
2199,4412.948
2200,4375.089
2201,4257.786
2202,4233.275
2203,4228.708
2204,4177.137
2205,4121.01
2206,4079.931
2207,4027.472
2208,3925.946
2209,3753.189
2210,3676.647
2211,3861.549
2212,3989.15
2213,3809.734
2214,3700.811
2215,3819.736
2216,3757.878
2217,3512.195
2218,3536.505
2219,3760.145
2220,3814.751
2221,3774.751
2222,3801.834
2223,3718.426
2224,3454.843
2225,3329.46
2226,3422.121
2227,3461.702
2228,3388.212
2229,3312.077
2230,3281.651
2231,3298.971
2232,3299.791
2233,3244.888
2234,3187.881
2235,3136.646
2236,3030.244
2237,2918.388
2238,2922.125
2239,3038.524
2240,3189.192
2241,3219.908
2242,3075.952
2243,2943.399
2244,2892.077
2245,2826.907
2246,2747.949
2247,2714.399
2248,2716.422
2249,2710.637
2250,2631.828
2251,2497.297
2252,2463.489
2253,2555.39
2254,2663.398
2255,2689.174
2256,2586.424
2257,2496.831
2258,2532.358
2259,2624.273
2260,2634.987
2261,2406.192
2262,2161.908
2263,2252.125
2264,2344.988
2265,2136.789
2266,2025.104
2267,2161.847
2268,2207.373
2269,2103.612
2270,2010.888
2271,1952.741
2272,1905.274
2273,1868.417
2274,1836.672
2275,1791.424
2276,1745.761
2277,1729.646
2278,1711.457
2279,1658.965
2280,1615.147
2281,1591.079
2282,1533.82
2283,1487.628
2284,1544.125
2285,1590.847
2286,1531.164
2287,1538.06
2288,1644.197
2289,1636.684
2290,1521.562
2291,1459.981
2292,1552.251
2293,1725.373
2294,1554.36
2295,1140.173
2296,1172.249
2297,1410.826
2298,1276.999
2299,1111.866
2300,1192.932
