400,37424.4
401,37400.22
402,37325.91
403,37239.77
404,37184.61
405,37189.07
406,37217.11
407,37214.07
408,37129.9
409,36980.14
410,36830.77
411,36748.39
412,36760.07
413,36816.49
414,36859.87
415,36844.3
416,36786.11
417,36722.2
418,36687.53
419,36686.6
420,36698.09
421,36700.02
422,36683.03
423,36664.19
424,36663.78
425,36696.09
426,36741.57
427,36768.85
428,36748.61
429,36687.61
430,36624.34
431,36598.04
432,36624.27
433,36668.3
434,36689.06
435,36653.99
436,36577.6
437,36490.8
438,36422.87
439,36375
440,36324.42
441,36247.77
442,36139.94
443,36032.75
444,35962.39
445,35954.88
446,35983.9
447,36006.17
448,35981.05
449,35906.16
450,35809.19
451,35718.35
452,35646.54
453,35578.94
454,35497.83
455,35391.92
456,35278.61
457,35183.33
458,35129.38
459,35115.13
460,35122.04
461,35131.27
462,35119.94
463,35058.97
464,34918.85
465,34690.12
466,34436
467,34236.04
468,34160.04
469,34189.16
470,34256.04
471,34294.29
472,34277.4
473,34227.3
474,34168.7
475,34118.3
476,34070.69
477,34016.7
478,33949.29
479,33875.51
480,33808.21
481,33759.58
482,33729.63
483,33707.18
484,33680.75
485,33641.34
486,33584.86
487,33507.75
488,33409.2
489,33300.63
490,33196.95
491,33111.98
492,33047.16
493,32996.02
494,32952.11
495,32915.18
496,32893.45
497,32895.68
498,32921.71
499,32944.82
500,32933.51
501,32862.59
502,32749.74
503,32630.71
504,32539.71
505,32484.54
506,32449.37
507,32417.72
508,32381.75
509,32349.53
510,32330.77
511,32328.18
512,32316.15
513,32262.05
514,32139.11
515,31974.13
516,31823.14
517,31740.51
518,31733.79
519,31758.67
520,31768.48
521,31731.16
522,31647.49
523,31522.68
524,31366.08
525,31207.2
526,31081.57
527,31020.05
528,31002.22
529,30975.33
530,30887.79
531,30736.81
532,30580.21
533,30479.23
534,30465.9
535,30500.13
536,30530.99
537,30515.5
538,30451.14
539,30348.62
540,30219.57
541,30086.96
542,29981.17
543,29931.8
544,29939.79
545,29970.19
546,29985.94
547,29963.01
548,29909.01
549,29836.28
550,29755.22
551,29666.7
552,29568.63
553,29460.38
554,29357.78
555,29286.7
556,29271.89
557,29302.54
558,29326.95
559,29291.6
560,29176.41
561,29033.64
562,28924.78
563,28893.84
564,28910.76
565,28925.77
566,28895.17
567,28827.29
568,28757.48
569,28719.59
570,28714.42
571,28711.18
572,28678.2
573,28603.61
574,28509.82
575,28422.54
576,28359.64
577,28313.55
578,28271.54
579,28221.71
580,28157.12
581,28072.81
582,27965.25
583,27850.03
584,27756.41
585,27713.07
586,27722.39
587,27753.42
588,27773.27
589,27758.22
590,27705.1
591,27613.58
592,27489.02
593,27360.93
594,27265.02
595,27230.94
596,27240.57
597,27252.83
598,27228.6
599,27161.76
600,27073.98
601,26987.51
602,26914.99
603,26855.26
604,26806.09
605,26764.78
606,26727.45
607,26690.04
608,26649.71
609,26609.21
610,26572.87
611,26544.18
612,26520.05
613,26494.04
614,26460.14
615,26419.59
616,26379.76
617,26347.89
618,26317.96
619,26265.2
620,26163.63
621,26011.48
622,25864.6
623,25786.96
624,25817.9
625,25895.42
626,25931.51
627,25853.23
628,25696.32
629,25544.93
630,25477.53
631,25494.82
632,25540.22
633,25557.1
634,25521.95
635,25450.62
636,25361.11
637,25269.11
638,25185.82
639,25121.87
640,25083.8
641,25065.15
642,25056.9
643,25049.17
644,25027.11
645,24974.26
646,24877.89
647,24759.91
648,24661.2
649,24620.14
650,24630.53
651,24647.47
652,24625.8
653,24554.42
654,24468.15
655,24404.78
656,24382.64
657,24378.99
658,24365.98
659,24323.69
660,24259.01
661,24184.51
662,24112.33
663,24052.59
664,24014.63
665,24005.58
666,24011.91
667,24009
668,23973.64
669,23906.88
670,23829.76
671,23763.46
672,23716.52
673,23681.75
674,23651.09
675,23619.47
676,23587.55
677,23556.64
678,23526.15
679,23490.1
680,23441.61
681,23376.57
682,23303.38
683,23233.91
684,23177.77
685,23129.01
686,23075.01
687,23004.72
688,22925.05
689,22854.34
690,22810.06
691,22789.44
692,22770.81
693,22732.29
694,22668.78
695,22597.78
696,22538.25
697,22499.04
698,22469.27
699,22435.79
700,22392.2
701,22351.47
702,22330
703,22336.66
704,22348.21
705,22332.81
706,22265.54
707,22165.13
708,22067.55
709,22005.24
710,21976.61
711,21960.67
712,21937.35
713,21903.22
714,21868.18
715,21842.05
716,21823.13
717,21796.83
718,21748.24
719,21675.83
720,21598.86
721,21538.21
722,21505.38
723,21491.76
724,21486.14
725,21479.33
726,21468.06
727,21450.19
728,21422.48
729,21376.85
730,21303.94
731,21199.11
732,21086.46
733,21000.91
734,20971.79
735,20980.25
736,20982.39
737,20938.04
738,20856.24
739,20780.65
740,20753.26
741,20771.45
742,20790.78
743,20766.45
744,20691.45
745,20605.61
746,20551.13
747,20543.88
748,20556.59
749,20558.19
750,20531.03
751,20486.64
752,20440.33
753,20402.6
754,20369.98
755,20336.49
756,20297.91
757,20256.86
758,20217.59
759,20182.97
760,20148.66
761,20107.93
762,20055.35
763,19994.14
764,19931.27
765,19873.65
766,19827.91
767,19800.54
768,19796.64
769,19803.42
770,19795.37
771,19748.4
772,19668.31
773,19587.74
774,19539.03
775,19521.88
776,19499.24
777,19433.07
778,19324.21
779,19228.36
780,19204.59
781,19266.06
782,19344.92
783,19365.57
784,19292.59
785,19179.09
786,19089.73
787,19065.54
788,19082.42
789,19105.19
790,19105.4
791,19077.6
792,19021.35
793,18939.73
794,18851.19
795,18778.3
796,18738.58
797,18722.43
798,18711.07
799,18688.44
800,18656.1
801,18623.05
802,18596.48
803,18568.96
804,18525.58
805,18454.03
806,18369.48
807,18303.77
808,18286.26
809,18310.69
810,18345.03
811,18357.89
812,18336.77
813,18285.39
814,18208.47
815,18121.95
816,18053.06
817,18028.52
818,18045.83
819,18068.08
820,18057.21
821,18002.81
822,17932.54
823,17876.41
824,17847.94
825,17834.35
826,17820.63
827,17798.04
828,17769.44
829,17738.93
830,17707.26
831,17668.16
832,17614.48
833,17546.4
834,17482.06
835,17442.27
836,17437.76
837,17450.91
838,17459.18
839,17446.74
840,17419.39
841,17387.32
842,17357.16
843,17322.5
844,17273.9
845,17205.9
846,17129.72
847,17060.98
848,17013.05
849,16988.74
850,16987.71
851,17006.69
852,17026.51
853,17022.71
854,16977.21
855,16910.15
856,16855.93
857,16842.74
858,16857.34
859,16869.32
860,16852.14
861,16808.09
862,16752.62
863,16700.03
864,16654.84
865,16616.71
866,16585.17
867,16559.17
868,16537.35
869,16517.99
870,16495.84
871,16463.57
872,16415.14
873,16359.05
874,16312.94
875,16292.68
876,16291.56
877,16287.69
878,16261.23
879,16222.76
880,16204.56
881,16236.17
882,16301.59
883,16350.41
884,16335.05
885,16263.15
886,16186.28
887,16154.28
888,16170.06
889,16197.29
890,16200.42
891,16176.4
892,16150.49
893,16147.11
894,16158.19
895,16146.3
896,16075.51
897,15959.05
898,15855.96
899,15824.05
900,15861.7
901,15910.31
902,15911.33
903,15854.7
904,15777.89
905,15719.1
906,15690.35
907,15677.41
908,15665.3
909,15646.13
910,15619.23
911,15584.32
912,15543.05
913,15499.02
914,15455.91
915,15416.97
916,15385.03
917,15362.78
918,15349.45
919,15340.73
920,15332.23
921,15321.42
922,15307.61
923,15290.05
924,15264.21
925,15221.66
926,15154.49
927,15069.24
928,14987.06
929,14929.05
930,14903.19
931,14904.46
932,14926.93
933,14956.3
934,14970.17
935,14947.16
936,14892.2
937,14835.08
938,14805.01
939,14802.8
940,14803.29
941,14781.64
942,14735.06
943,14680.29
944,14634.02
945,14601.66
946,14579.04
947,14561.79
948,14547.3
949,14534.42
950,14521.99
951,14508
952,14489.86
953,14465.28
954,14437.04
955,14411.59
956,14394.98
957,14386.82
958,14382.26
959,14376.93
960,14373.09
961,14377.32
962,14395.1
963,14419.46
964,14435.82
965,14431.14
966,14408.43
967,14379.83
968,14356.27
969,14337.22
970,14316.07
971,14287.27
972,14253.88
973,14223.2
974,14200.86
975,14180.51
976,14150.46
977,14102.12
978,14047.54
979,14007.12
980,13996.54
981,14003.6
982,14005.9
983,13986.46
984,13957.14
985,13939.3
986,13947.41
987,13963.39
988,13959.55
989,13918.1
990,13862.69
991,13827.87
992,13836.96
993,13871.64
994,13903.93
995,13911.3
996,13888.94
997,13835.71
998,13757.42
999,13680.01
1000,13632.93
1001,13628.85
1002,13638.05
1003,13624.36
1004,13570.66
1005,13501.97
1006,13448.92
1007,13434.45
1008,13446.53
1009,13463.04
1010,13466.87
1011,13460.58
1012,13451.65
1013,13445.91
1014,13443.43
1015,13443.03
1016,13444
1017,13446.98
1018,13452.88
1019,13460.31
1020,13462.08
1021,13450.13
1022,13421.94
1023,13386.98
1024,13356.25
1025,13337.42
1026,13332.05
1027,13340.97
1028,13359.24
1029,13372.9
1030,13367.52
1031,13338.35
1032,13293.53
1033,13242.17
1034,13196.4
1035,13171.77
1036,13182.85
1037,13222.29
1038,13262.36
1039,13276.12
1040,13259.77
1041,13227.27
1042,13192.73
1043,13166.49
1044,13156.54
1045,13169.25
1046,13197.73
1047,13228.16
1048,13248.49
1049,13258.71
1050,13263.86
1051,13267.69
1052,13267.2
1053,13257.19
1054,13234.5
1055,13204.41
1056,13174.34
1057,13150.87
1058,13137.78
1059,13138.28
1060,13151.01
1061,13163.29
1062,13160.84
1063,13139.26
1064,13113.2
1065,13099.17
1066,13102.21
1067,13110.14
1068,13109.9
1069,13104.75
1070,13116.87
1071,13167.77
1072,13246.04
1073,13310.62
1074,13323.44
1075,13297.06
1076,13279.11
1077,13312.14
1078,13388.05
1079,13472.09
1080,13535.94
1081,13593.13
1082,13673.56
1083,13796.21
1084,13929.88
1085,14029.09
1086,14065.44
1087,14066.62
1088,14071.78
1089,14101.13
1090,14130.02
1091,14127.52
1092,14082.05
1093,14015.48
1094,13952.55
1095,13902.22
1096,13853.38
1097,13794.22
1098,13724.06
1099,13652.53
1100,13588.93
1101,13533.5
1102,13480.37
1103,13424.74
1104,13370.97
1105,13327.86
1106,13302.3
1107,13291.02
1108,13287.33
1109,13286.02
1110,13287.18
1111,13292.1
1112,13300.21
1113,13306.36
1114,13304.77
1115,13296.77
1116,13295.82
1117,13316.02
1118,13354.7
1119,13389.29
1120,13397.02
1121,13371.62
1122,13320.41
1123,13251.04
1124,13170.51
1125,13085.42
1126,13002.96
1127,12933.96
1128,12890.68
1129,12877.11
1130,12864.75
1131,12817.11
1132,12717.54
1133,12600.02
1134,12506.16
1135,12456.75
1136,12437.53
1137,12431.18
1138,12427.74
1139,12425.46
1140,12422.86
1141,12415.94
1142,12398.78
1143,12367.74
1144,12337.59
1145,12332.1
1146,12366.27
1147,12411.98
1148,12427.87
1149,12390.48
1150,12330.38
1151,12288.03
1152,12282.94
1153,12294.96
1154,12299.83
1155,12282.35
1156,12238.22
1157,12165.22
1158,12082.2
1159,12024.33
1160,12020.49
1161,12045.14
1162,12046.29
1163,11987.03
1164,11902.12
1165,11847.31
1166,11854.95
1167,11892.36
1168,11915.95
1169,11904.34
1170,11873.44
1171,11842.26
1172,11818.85
1173,11799.91
1174,11782.09
1175,11767.57
1176,11762.08
1177,11769.64
1178,11783.2
1179,11791.55
1180,11786.06
1181,11767.26
1182,11737.64
1183,11700.48
1184,11660.53
1185,11622.8
1186,11593.73
1187,11581.48
1188,11593.32
1189,11623
1190,11654.67
1191,11673.22
1192,11670.06
1193,11639.28
1194,11582.13
1195,11526
1196,11504.08
1197,11529.67
1198,11575.66
1199,11610.55
1200,11619.23
1201,11605.71
1202,11575.66
1203,11541.46
1204,11520.07
1205,11524.17
1206,11539.91
1207,11543.39
1208,11519.02
1209,11478.02
1210,11436.99
1211,11409.89
1212,11406.2
1213,11434.09
1214,11483.44
1215,11526.11
1216,11536.2
1217,11515.91
1218,11482.79
1219,11453.54
1220,11440.26
1221,11453.63
1222,11494.63
1223,11541
1224,11567.58
1225,11567.51
1226,11557.45
1227,11554.59
1228,11562.17
1229,11573.69
1230,11583.04
1231,11588.02
1232,11587.84
1233,11584.13
1234,11585.62
1235,11602.12
1236,11630.2
1237,11646.23
1238,11626.71
1239,11578.54
1240,11533.34
1241,11518.72
1242,11529.12
1243,11544.93
1244,11553
1245,11561.55
1246,11583.01
1247,11615.78
1248,11635.13
1249,11616.18
1250,11569.56
1251,11536.18
1252,11550.78
1253,11597.43
1254,11638.19
1255,11646.5
1256,11633.42
1257,11617.62
1258,11610.36
1259,11611.09
1260,11617.96
1261,11625.58
1262,11625.62
1263,11612.75
1264,11601.37
1265,11613.74
1266,11658.96
1267,11707.67
1268,11723.94
1269,11695.86
1270,11645.05
1271,11595.23
1272,11563.97
1273,11564.64
1274,11602.92
1275,11644.76
1276,11643.17
1277,11579.85
1278,11503.78
1279,11471.89
1280,11493.84
1281,11526.43
1282,11529.19
1283,11512.17
1284,11512.49
1285,11555.74
1286,11622.39
1287,11682.25
1288,11717.73
1289,11732.65
1290,11732.78
1291,11721.09
1292,11698.35
1293,11667.25
1294,11642.3
1295,11642.38
1296,11674.12
1297,11713.57
1298,11732.65
1299,11722.4
1300,11695.54
1301,11665.64
1302,11643.03
1303,11636.33
1304,11649.7
1305,11671.49
1306,11686.71
1307,11688.45
1308,11682.16
1309,11674.73
1310,11677.85
1311,11706.55
1312,11767.77
1313,11829.87
1314,11850.07
1315,11815.79
1316,11773
1317,11771.91
1318,11817.97
1319,11878.28
1320,11922.26
1321,11940.91
1322,11933.13
1323,11907.62
1324,11895.94
1325,11931.24
1326,12006.93
1327,12076.53
1328,12098.45
1329,12078.18
1330,12041.4
1331,12012.26
1332,12010.55
1333,12054.22
1334,12129.48
1335,12187.16
1336,12184.6
1337,12144.88
1338,12121.99
1339,12147.06
1340,12184.66
1341,12188.59
1342,12151.53
1343,12111.59
1344,12104.04
1345,12119.44
1346,12126.64
1347,12107.25
1348,12080.75
1349,12072.74
1350,12085.32
1351,12093.19
1352,12074.07
1353,12041.64
1354,12026.59
1355,12046.45
1356,12081.75
1357,12107.24
1358,12115.86
1359,12120.48
1360,12132.6
1361,12147.11
1362,12151.64
1363,12143.33
1364,12143.07
1365,12174.27
1366,12233.97
1367,12293.53
1368,12329.01
1369,12351.69
1370,12385.96
1371,12441.69
1372,12497.86
1373,12530.5
1374,12532.81
1375,12512.05
1376,12479.3
1377,12461.81
1378,12491.39
1379,12569.82
1380,12647.58
1381,12674.42
1382,12652.17
1383,12616.63
1384,12594.1
1385,12573.62
1386,12536.04
1387,12475.75
1388,12404.86
1389,12336.83
1390,12286.23
1391,12268.15
1392,12284.58
1393,12303.08
1394,12287.36
1395,12238.14
1396,12191.26
1397,12177.05
1398,12187.9
1399,12203.38
1400,12211.01
1401,12212.52
1402,12211.08
1403,12209.38
1404,12209.88
1405,12214.91
1406,12226.59
1407,12246.59
1408,12263.6
1409,12250.98
1410,12189.44
1411,12116.04
1412,12091.17
1413,12139.38
1414,12208.91
1415,12241.88
1416,12233.09
1417,12216.52
1418,12219.31
1419,12238.2
1420,12262.6
1421,12283.88
1422,12295.81
1423,12292.79
1424,12272.42
1425,12233.76
1426,12183.14
1427,12142.44
1428,12133.9
1429,12155.95
1430,12189.8
1431,12217.46
1432,12225.64
1433,12202.86
1434,12161.33
1435,12140.87
1436,12174.66
1437,12244.55
1438,12312.72
1439,12352.3
1440,12356.69
1441,12324.22
1442,12283.07
1443,12279.6
1444,12335.64
1445,12401.07
1446,12415.4
1447,12372.79
1448,12317.69
1449,12288
1450,12282.77
1451,12290.21
1452,12307.17
1453,12342.24
1454,12400.98
1455,12461.57
1456,12490.48
1457,12477.39
1458,12457.77
1459,12468.82
1460,12506.01
1461,12538.82
1462,12549.51
1463,12557.93
1464,12588.79
1465,12634.19
1466,12657.95
1467,12634.98
1468,12589.2
1469,12556.5
1470,12556.26
1471,12588.48
1472,12647.97
1473,12706.33
1474,12727.36
1475,12700.83
1476,12656.84
1477,12625.75
1478,12611.65
1479,12606.31
1480,12603.48
1481,12600.99
1482,12597.09
1483,12588.69
1484,12571.97
1485,12544.36
1486,12506.7
1487,12460.94
1488,12417.57
1489,12393.55
1490,12398.25
1491,12415.73
1492,12425.49
1493,12418.7
1494,12397.33
1495,12367.87
1496,12353.24
1497,12379.4
1498,12439.45
1499,12490.81
1500,12498.54
1501,12473.63
1502,12440.89
1503,12423.56
1504,12442.97
1505,12510.52
1506,12582.44
1507,12596.63
1508,12543.43
1509,12487.87
1510,12488.39
1511,12523.38
1512,12540.15
1513,12520.46
1514,12500.44
1515,12514.98
1516,12555.37
1517,12594.14
1518,12612.63
1519,12607.27
1520,12579.28
1521,12554.89
1522,12571.69
1523,12640.26
1524,12722.6
1525,12778.09
1526,12786.69
1527,12738.49
1528,12650.33
1529,12588.02
1530,12611.43
1531,12686.62
1532,12734.13
1533,12718.79
1534,12687.76
1535,12691.49
1536,12733.82
1537,12795.92
1538,12850.33
1539,12854.4
1540,12775.69
1541,12674.04
1542,12651.71
1543,12736.93
1544,12830.07
1545,12835.24
1546,12777.36
1547,12734.02
1548,12746.77
1549,12798.79
1550,12869.67
1551,12950.02
1552,13034.52
1553,13101.24
1554,13104.01
1555,13011.46
1556,12889.45
1557,12836.95
1558,12874.64
1559,12921.66
1560,12911.85
1561,12887
1562,12920.02
1563,13010.29
1564,13074.32
1565,13051.7
1566,12997.75
1567,12995.08
1568,13059.06
1569,13140.83
1570,13200.03
1571,13234.64
1572,13250.69
1573,13252.18
1574,13241.51
1575,13219.16
1576,13180.45
1577,13123.01
1578,13080.95
1579,13111.54
1580,13227.87
1581,13347.59
1582,13388.74
1583,13379.12
1584,13400.7
1585,13477.07
1586,13534.39
1587,13508.57
1588,13452.69
1589,13462.31
1590,13558.56
1591,13668.78
1592,13733.19
1593,13776.17
1594,13843.39
1595,13940.08
1596,14033.58
1597,14101.3
1598,14156.61
1599,14217.34
1600,14269.03
1601,14275.35
1602,14229.16
1603,14187.34
1604,14203.06
1605,14231.86
1606,14183.97
1607,14048.25
1608,13931.9
1609,13925.87
1610,13986.06
1611,14027.02
1612,14012.66
1613,13957.6
1614,13884.78
1615,13836.56
1616,13853.78
1617,13905.02
1618,13909.53
1619,13838.29
1620,13772.71
1621,13791.33
1622,13849.56
1623,13850.31
1624,13777.35
1625,13722.73
1626,13756.27
1627,13819.46
1628,13823.71
1629,13758.66
1630,13679.86
1631,13631.39
1632,13622.89
1633,13655.21
1634,13698.97
1635,13709.67
1636,13674.57
1637,13628.69
1638,13604.42
1639,13602.63
1640,13614.67
1641,13627.82
1642,13625.74
1643,13602.8
1644,13581.48
1645,13584.64
1646,13598.5
1647,13590.93
1648,13552.36
1649,13506.22
1650,13477.25
1651,13484.16
1652,13541.21
1653,13616.37
1654,13640.11
1655,13587.44
1656,13537.41
1657,13566.62
1658,13628.48
1659,13625.13
1660,13550.95
1661,13512.35
1662,13578.19
1663,13662.76
1664,13658.08
1665,13589.54
1666,13567.1
1667,13634.58
1668,13719.39
1669,13752.22
1670,13740.01
1671,13712.92
1672,13685.82
1673,13660.16
1674,13642.95
1675,13655.21
1676,13713.27
1677,13786.02
1678,13823.06
1679,13806.34
1680,13754.68
1681,13691.24
1682,13646.2
1683,13646.77
1684,13679.04
1685,13707.37
1686,13723.02
1687,13755.17
1688,13817.86
1689,13857.08
1690,13811.2
1691,13719.89
1692,13687.51
1693,13747.76
1694,13817.33
1695,13821.25
1696,13770.35
1697,13699.21
1698,13642.03
1699,13632.56
1700,13683.39
1701,13768.74
1702,13857.38
1703,13911.69
1704,13895.59
1705,13827.97
1706,13770.36
1707,13746.14
1708,13703.87
1709,13606.65
1710,13534.01
1711,13592.75
1712,13738.45
1713,13807.84
1714,13747.89
1715,13721.16
1716,13862.26
1717,14046.71
1718,14082.93
1719,13972.13
1720,13861.69
1721,13826.08
1722,13802.37
1723,13737.92
1724,13692.46
1725,13748.15
1726,13864.45
1727,13916.58
1728,13864.58
1729,13807.38
1730,13822.4
1731,13852.49
1732,13817.8
1733,13750.22
1734,13747.05
1735,13824.89
1736,13889.11
1737,13874.27
1738,13835.02
1739,13840.5
1740,13879.71
1741,13903.29
1742,13891.15
1743,13855.72
1744,13817.31
1745,13811.59
1746,13866.53
1747,13948.19
1748,14001.43
1749,14009.82
1750,13989.72
1751,13956.29
1752,13920.48
1753,13891.65
1754,13873.78
1755,13869.11
1756,13876.15
1757,13891.08
1758,13911.58
1759,13937.33
1760,13964.09
1761,13976.14
1762,13959.45
1763,13926.34
1764,13900.51
1765,13911.29
1766,13992.47
1767,14113.16
1768,14120.9
1769,13918.5
1770,13697.67
1771,13695.07
1772,13833.48
1773,13861.86
1774,13750.89
1775,13736.07
1776,13927.16
1777,14085.36
1778,13988.27
1779,13796.7
1780,13781.12
1781,13924.18
1782,14006.03
1783,13957.36
1784,13930.38
1785,14018.95
1786,14093.36
1787,14015.68
1788,13863.46
1789,13792.14
1790,13825.03
1791,13879.55
1792,13906.84
1793,13916.13
1794,13918.51
1795,13914.84
1796,13905.74
1797,13904.51
1798,13927.77
1799,13958.98
1800,13954.64
1801,13903.72
1802,13847.9
1803,13824.36
1804,13840.98
1805,13895.55
1806,13957.23
1807,13985.52
1808,13970.12
1809,13924.49
1810,13879.81
1811,13891.95
1812,13974.96
1813,14021.24
1814,13936.03
1815,13815.16
1816,13808.87
1817,13920.26
1818,14055.54
1819,14138.37
1820,14116.09
1821,13994.48
1822,13906.64
1823,13958.99
1824,14066.67
1825,14106.06
1826,14068.01
1827,14000.93
1828,13931.55
1829,13866.29
1830,13823.18
1831,13840.48
1832,13927
1833,13996.83
1834,13969.74
1835,13901.62
1836,13888.01
1837,13919.28
1838,13919.69
1839,13857.32
1840,13750.72
1841,13641.65
1842,13611.67
1843,13712.43
1844,13874.1
1845,14006.66
1846,14064.13
1847,14023.9
1848,13938.98
1849,13911.94
1850,13948.34
1851,13939.28
1852,13841.97
1853,13758.01
1854,13771.69
1855,13847.05
1856,13925.97
1857,13975.46
1858,13974.92
1859,13937.57
1860,13898.92
1861,13902.45
1862,13998.74
1863,14155.42
1864,14194.62
1865,14015.39
1866,13786.08
1867,13685.65
1868,13695.92
1869,13740.03
1870,13772.04
1871,13764.26
1872,13725.33
1873,13694.07
1874,13692.02
1875,13716.26
1876,13755.17
1877,13782.26
1878,13779.79
1879,13767.69
1880,13767.46
1881,13761.43
1882,13721.28
1883,13653.88
1884,13586.95
1885,13557.92
1886,13611.25
1887,13731.22
1888,13819.75
1889,13828.96
1890,13829.54
1891,13873.86
1892,13902.97
1893,13852.76
1894,13755.43
1895,13673.86
1896,13659.19
1897,13748.16
1898,13850.57
1899,13784.9
1900,13564.89
1901,13428.2
1902,13487.42
1903,13623.28
1904,13731.3
1905,13801.33
1906,13829.26
1907,13778.25
1908,13628.71
1909,13508.77
1910,13573.39
1911,13723.88
1912,13740.13
1913,13640.64
1914,13624.68
1915,13721.99
1916,13770.7
1917,13707.88
1918,13641.8
1919,13637.56
1920,13629.18
1921,13574.32
1922,13565.85
1923,13677.08
1924,13757.67
1925,13635.41
1926,13450.19
1927,13446.3
1928,13568.58
1929,13596.7
1930,13531.4
1931,13549.61
1932,13643.92
1933,13598.92
1934,13377.96
1935,13230.23
1936,13295.22
1937,13437.59
1938,13516.54
1939,13472.06
1940,13302.62
1941,13179.62
1942,13259.79
1943,13392.49
1944,13362.79
1945,13246.55
1946,13229.57
1947,13269.45
1948,13199.61
1949,13054.32
1950,13019.8
1951,13121.6
1952,13219.97
1953,13252.73
1954,13268.42
1955,13295.1
1956,13313.84
1957,13312.31
1958,13302.19
1959,13276.88
1960,13170.1
1961,12960.95
1962,12830.24
1963,12932.38
1964,13082.03
1965,13049
1966,12936.14
1967,12943.21
1968,13050.3
1969,13140.87
1970,13171
1971,13140.27
1972,13056.59
1973,12935.95
1974,12838.83
1975,12859.97
1976,12971.02
1977,13014.08
1978,12940.91
1979,12851.45
1980,12804.44
1981,12780.18
1982,12781.22
1983,12863.11
1984,13002.82
1985,12991.81
1986,12733.79
1987,12494.33
1988,12494.29
1989,12626.98
1990,12749.45
1991,12824.37
1992,12846.56
1993,12844.23
1994,12843.63
1995,12811.91
1996,12713.16
1997,12610.8
1998,12589.45
1999,12614.76
2000,12609.55
2001,12573.49
2002,12541.26
2003,12513.4
2004,12475.42
2005,12463.72
2006,12539.11
2007,12654.67
2008,12690.67
2009,12594.34
2010,12372.88
2011,12139.49
2012,12089.9
2013,12238.45
2014,12424.55
2015,12519.34
2016,12439.57
2017,12251.69
2018,12183.3
2019,12264.33
2020,12276.53
2021,12158.13
2022,12070.85
2023,12106.83
2024,12238.44
2025,12384.37
2026,12398.75
2027,12258.29
2028,12139.55
2029,12135.07
2030,12169.38
2031,12184.96
2032,12182.46
2033,12160.39
2034,12103.17
2035,12014.65
2036,11937.18
2037,11887.88
2038,11827.8
2039,11754.53
2040,11749.05
2041,11822.66
2042,11829.62
2043,11724.07
2044,11697.67
2045,11813.27
2046,11816.53
2047,11611.31
2048,11498.02
2049,11625.67
2050,11742.71
2051,11673.44
2052,11488.98
2053,11301.33
2054,11244.16
2055,11345.4
2056,11426.94
2057,11401.27
2058,11391.25
2059,11433.32
2060,11369.87
2061,11176.31
2062,11089.61
2063,11178.49
2064,11194.78
2065,11065.27
2066,11033.59
2067,11157.62
2068,11183.37
2069,11048.64
2070,10989.66
2071,11079.65
2072,11152.9
2073,11136.5
2074,11088.75
2075,11035.38
2076,10958.86
2077,10897.59
2078,10942.07
2079,11005.82
2080,10852.82
2081,10628.67
2082,10776.78
2083,11142.13
2084,11137.42
2085,10794.77
2086,10560.98
2087,10506.52
2088,10471.31
2089,10431.07
2090,10426.71
2091,10387.48
2092,10219.36
2093,10063.73
2094,10120.02
2095,10312.54
2096,10474.25
2097,10506.53
2098,10375.45
2099,10235.89
2100,10232.92
2101,10277.51
2102,10247.53
2103,10090.45
2104,9824.506
2105,9618.978
2106,9599.995
2107,9741.612
2108,9954.346
2109,10070.49
2110,10027.07
2111,9936.313
2112,9858.435
2113,9767.386
2114,9666.138
2115,9593.936
2116,9564.921
2117,9568.837
2118,9590.97
2119,9609.283
2120,9553.175
2121,9351.114
2122,9159.449
2123,9191.105
2124,9319.971
2125,9340.288
2126,9297.465
2127,9284.611
2128,9287.062
2129,9276.696
2130,9260.157
2131,9253.746
2132,9280.662
2133,9309.02
2134,9211.443
2135,8996.184
2136,8865.303
2137,8866.666
2138,8871.501
2139,8813.579
2140,8691.693
2141,8571.462
2142,8539.628
2143,8516.345
2144,8386.201
2145,8302.194
2146,8426.509
2147,8543.497
2148,8464.207
2149,8394.655
2150,8461.247
2151,8439.637
2152,8261.797
2153,8194.487
2154,8285.248
2155,8282.276
2156,8146.244
2157,8037.589
2158,7974.529
2159,7886.733
2160,7801.383
2161,7771.976
2162,7730.6
2163,7604.345
2164,7461.348
2165,7394.006
2166,7468.157
2167,7607.762
2168,7492.002
2169,7152.534
2170,7091.248
2171,7305.904
2172,7335.995
2173,7180.618
2174,7114.648
2175,7147.389
2176,7176.759
2177,7151.978
2178,7041.404
2179,6825.286
2180,6578.631
2181,6567.212
2182,6782.572
2183,6803.655
2184,6621.623
2185,6628.909
2186,6770.618
2187,6733.29
2188,6586.394
2189,6512.981
2190,6425.702
2191,6236.612
2192,6080.46
2193,6042.292
2194,6041.682
2195,6082.557
2196,6279.207
2197,6499.293
2198,6452.23
2199,6265.288
2200,6212.517
2201,6168.243
2202,5988.519
2203,5895.94
2204,5978.032
2205,5915.03
2206,5712.677
2207,5809.835
2208,6005.226
2209,5675.655
2210,5209.668
2211,5298.381
2212,5560.256
2213,5502.553
2214,5268.319
2215,5124.389
2216,5337.208
2217,5733.793
2218,5718.394
2219,5331.401
2220,5002.755
2221,4838.495
2222,4795.242
2223,4768.077
2224,4708.141
2225,4712.415
2226,4762.287
2227,4681.372
2228,4475.209
2229,4288.631
2230,4209.114
2231,4280.721
2232,4482.155
2233,4721.632
2234,4790.891
2235,4665.316
2236,4563.579
2237,4448.02
2238,4134.958
2239,3896.567
2240,4031.53
2241,4168.329
2242,4067.958
2243,4089.653
2244,4264.248
2245,4186.752
2246,3940.323
2247,3875.503
2248,3867.417
2249,3726.547
2250,3617.751
2251,3625.75
2252,3591.664
2253,3488.552
2254,3415.083
2255,3295.372
2256,3051.373
2257,2995.954
2258,3270.483
2259,3412.395
2260,3299.508
2261,3286.695
2262,3406.802
2263,3471.569
2264,3334.645
2265,3019.396
2266,2957.626
2267,3219.379
2268,3295.971
2269,3064.164
2270,2722.204
2271,2456.223
2272,2385.037
2273,2446.963
2274,2583.294
2275,2784.013
2276,2917.448
2277,2806.036
2278,2632.188
2279,2614.681
2280,2632.329
2281,2591.559
2282,2538.805
2283,2500.226
2284,2465.559
2285,2353.061
2286,2147.05
2287,2094.668
2288,2257.627
2289,2383.437
2290,2342.403
2291,2150.658
2292,2057.519
2293,2163.072
2294,2031.584
2295,1710.6
2296,1827.895
2297,2178.657
2298,2214.723
2299,2054.904
2300,1914.555
