400,40526.07
401,40478.12
402,40350.34
403,40193.41
404,40064.14
405,40006.42
406,40004.92
407,40027.25
408,40042.4
409,40037.86
410,40015.36
411,39976.99
412,39927.68
413,39877.77
414,39838.21
415,39818.7
416,39822.52
417,39850.82
418,39903.68
419,39961.91
420,39990.05
421,39952.45
422,39840.88
423,39704.58
424,39599.77
425,39570.8
426,39595.67
427,39629.09
428,39628.09
429,39589.4
430,39544.72
431,39526.59
432,39545.47
433,39564.68
434,39541.66
435,39445.2
436,39307.35
437,39182.23
438,39120.7
439,39120.09
440,39131.82
441,39106.23
442,39018.97
443,38896.83
444,38772.73
445,38673.72
446,38597.03
447,38530.15
448,38461.78
449,38398.14
450,38359.24
451,38365.12
452,38412.18
453,38453.89
454,38439.37
455,38332.86
456,38165.96
457,37989.18
458,37849.97
459,37760.42
460,37708.65
461,37682.28
462,37664.52
463,37631.81
464,37560.1
465,37437.79
466,37298.43
467,37185.75
468,37137.19
469,37132.81
470,37121.28
471,37052.41
472,36918.3
473,36762.37
474,36630.94
475,36554.39
476,36519.44
477,36505.38
478,36491.94
479,36460.85
480,36394.8
481,36278.13
482,36126.5
483,35984.21
484,35896.19
485,35878.18
486,35888.34
487,35878.2
488,35811.57
489,35708.09
490,35603.4
491,35530.48
492,35493.43
493,35477.71
494,35468.5
495,35450.77
496,35409.16
497,35328.33
498,35204.47
499,35067.91
500,34955.14
501,34895.76
502,34872.48
503,34848.24
504,34788.03
505,34693.18
506,34597.45
507,34535.3
508,34519.06
509,34520.27
510,34506.2
511,34453.32
512,34374.62
513,34292.27
514,34225.74
515,34170.54
516,34109
517,34024.13
518,33917.8
519,33812.82
520,33732.89
521,33685.94
522,33644.45
523,33576.16
524,33458.88
525,33319
526,33197.6
527,33131.36
528,33109.21
529,33089.98
530,33033.11
531,32929.77
532,32810.5
533,32708.09
534,32642.42
535,32601.53
536,32568.62
537,32527.48
538,32464.25
539,32365.94
540,32222.38
541,32056.78
542,31914.22
543,31838.8
544,31833.69
545,31850.68
546,31838.57
547,31770.16
548,31676.7
549,31598.05
550,31563.74
551,31551.63
552,31523.58
553,31446.2
554,31337.12
555,31245.28
556,31218.13
557,31250.89
558,31278.66
559,31233.78
560,31091.1
561,30917.43
562,30791.29
563,30767.79
564,30802.71
565,30825.34
566,30773.41
567,30656.28
568,30520.49
569,30411.19
570,30340.75
571,30290.3
572,30239.95
573,30181.21
574,30125.41
575,30085.76
576,30068.45
577,30056.77
578,30029.41
579,29969.16
580,29884.55
581,29794.23
582,29715.79
583,29653.18
584,29600.63
585,29552.19
586,29502.84
587,29448.71
588,29386.01
589,29314.35
590,29240.98
591,29174.2
592,29119.56
593,29071.38
594,29021.07
595,28961.21
596,28893.82
597,28825.43
598,28762.15
599,28702.89
600,28640.49
601,28567.78
602,28484.73
603,28401.58
604,28329.31
605,28273.68
606,28227.34
607,28181
608,28128.37
609,28077.02
610,28038.39
611,28021.56
612,28015.88
613,28000.88
614,27957.26
615,27886.67
616,27808.47
617,27742.2
618,27693.57
619,27648.88
620,27592.98
621,27516.72
622,27425.01
623,27324.78
624,27223.25
625,27128.96
626,27050.75
627,26995.74
628,26958.58
629,26928.37
630,26894.7
631,26853.89
632,26807.21
633,26756.01
634,26702.37
635,26649.09
636,26599.03
637,26554.7
638,26517.99
639,26490.72
640,26470.13
641,26438.95
642,26377.04
643,26271.05
644,26143.96
645,26030.92
646,25963.63
647,25942.56
648,25951.04
649,25972.31
650,25990.44
651,25990.18
652,25956.65
653,25886.14
654,25790.04
655,25680.72
656,25570.06
657,25468.95
658,25388.07
659,25335.36
660,25309.41
661,25306.88
662,25322.07
663,25336.37
664,25326.7
665,25273.36
666,25186.79
667,25093.73
668,25019.85
669,24971.88
670,24940.85
671,24917.36
672,24890.3
673,24846.47
674,24772.73
675,24669.22
676,24560.96
677,24475.59
678,24428.46
679,24399.69
680,24363.21
681,24299.77
682,24220.35
683,24144.39
684,24088.13
685,24045.71
686,24001.85
687,23942.74
688,23871.62
689,23802.63
690,23749.53
691,23716.23
692,23697.44
693,23687.47
694,23677.1
695,23652.37
696,23599.15
697,23514.94
698,23420.04
699,23337.29
700,23282.36
701,23250.35
702,23232.7
703,23221.21
704,23209.05
705,23189.77
706,23157.33
707,23108.13
708,23039.55
709,22950.63
710,22856.93
711,22783.34
712,22752.68
713,22754.41
714,22751.33
715,22706.86
716,22619.13
717,22524.96
718,22462.56
719,22444.59
720,22444.2
721,22431.36
722,22388.45
723,22324.39
724,22251.54
725,22181.21
726,22121.54
727,22080.1
728,22058.44
729,22032.32
730,21970.64
731,21851.46
732,21708.55
733,21596.61
734,21562.84
735,21589.36
736,21624.44
737,21619.46
738,21567.24
739,21489.71
740,21408.76
741,21334.58
742,21266.36
743,21202.95
744,21145.34
745,21097.16
746,21062.18
747,21041.85
748,21033.86
749,21035.55
750,21042.14
751,21044.16
752,21031.57
753,20999.08
754,20954.99
755,20910.1
756,20872.1
757,20836.75
758,20796.96
759,20747.27
760,20690.94
761,20634.08
762,20581.71
763,20531.59
764,20478.35
765,20417.71
766,20355.86
767,20304.78
768,20275.13
769,20259.87
770,20239.35
771,20195.01
772,20132.42
773,20078.81
774,20061.03
775,20076.29
776,20088.4
777,20060.14
778,19982.93
779,19888.56
780,19811.49
781,19765.97
782,19730.64
783,19680.7
784,19606.99
785,19534.89
786,19494.25
787,19498.52
788,19515.79
789,19506.54
790,19444.9
791,19352.47
792,19261
793,19196.12
794,19157.13
795,19136.16
796,19125.81
797,19121.08
798,19117.82
799,19112.03
800,19100.6
801,19080.82
802,19050.14
803,19007.43
804,18952.24
805,18884.3
806,18805.02
807,18716.85
808,18623.15
809,18539.59
810,18490.76
811,18499.04
812,18545.77
813,18577.14
814,18540.77
815,18438.52
816,18326.9
817,18263.15
818,18259.49
819,18275.14
820,18267.08
821,18220.9
822,18161.49
823,18116.23
824,18098.1
825,18097.16
826,18101.45
827,18100.07
828,18084.04
829,18044.69
830,17982.53
831,17917.71
832,17872.77
833,17857.51
834,17850.36
835,17825.13
836,17766.27
837,17688.36
838,17611.16
839,17549.52
840,17502.44
841,17465.67
842,17435.15
843,17407.42
844,17379.13
845,17348.21
846,17317.76
847,17292.25
848,17274.16
849,17256.5
850,17229.5
851,17186.31
852,17135.97
853,17092.79
854,17068.32
855,17057.39
856,17048.6
857,17031.75
858,17004.57
859,16968.04
860,16923.93
861,16879.64
862,16845.14
863,16828.07
864,16816.74
865,16789.86
866,16729.58
867,16650.33
868,16583.96
869,16558.91
870,16567.71
871,16581.93
872,16575.31
873,16547.99
874,16516.77
875,16497.08
876,16485.31
877,16465.04
878,16421.24
879,16359.77
880,16301.4
881,16265.87
882,16253.68
883,16250.78
884,16243.63
885,16231.19
886,16222.43
887,16225.61
888,16233.27
889,16224.78
890,16180.96
891,16114.32
892,16064.9
893,16071.22
894,16126.81
895,16184.65
896,16198.22
897,16158.07
898,16089.26
899,16017.56
900,15957.71
901,15913.82
902,15889.21
903,15879.1
904,15870.72
905,15851.41
906,15816.54
907,15769.58
908,15714.49
909,15658.59
910,15612.68
911,15586.93
912,15574.5
913,15551.02
914,15492.64
915,15404.1
916,15319.62
917,15273.43
918,15269.21
919,15279.22
920,15275.29
921,15251.61
922,15225.37
923,15213.92
924,15214.75
925,15205.19
926,15162.8
927,15090.22
928,15015.29
929,14965.91
930,14947.95
931,14945.51
932,14942.19
933,14929.52
934,14906.71
935,14873.47
936,14833.26
937,14793.12
938,14759.93
939,14735.1
940,14715.07
941,14696.13
942,14675.09
943,14649.23
944,14616.1
945,14577.91
946,14540.82
947,14510.79
948,14488.49
949,14470.35
950,14452.84
951,14434.98
952,14417.79
953,14402.4
954,14390.51
955,14384.28
956,14385.48
957,14390.84
958,14393.62
959,14387.47
960,14371.49
961,14348.4
962,14321.04
963,14293.36
964,14270.01
965,14255.11
966,14247.71
967,14244
968,14240.12
969,14232.16
970,14216.19
971,14188.9
972,14151.91
973,14109.22
974,14064.74
975,14021.6
976,13982.61
977,13949.89
978,13921.41
979,13893.42
980,13863.6
981,13838.17
982,13826.45
983,13834.03
984,13846.76
985,13843.91
986,13810.79
987,13760.83
988,13715.83
989,13692.83
990,13689.13
991,13696.84
992,13707.99
993,13714.18
994,13706.96
995,13681.3
996,13643.4
997,13601.73
998,13562.74
999,13527.01
1000,13494.11
1001,13463.89
1002,13437.1
1003,13414.59
1004,13396.35
1005,13380.42
1006,13364.61
1007,13347.2
1008,13328.78
1009,13310.57
1010,13294.51
1011,13285.49
1012,13289.09
1013,13306.81
1014,13325.97
1015,13330.88
1016,13311.64
1017,13275.56
1018,13233.12
1019,13194.39
1020,13168.57
1021,13164.63
1022,13183.27
1023,13207.24
1024,13217.07
1025,13204.69
1026,13182.98
1027,13166.93
1028,13163.71
1029,13168.3
1030,13174.57
1031,13175.33
1032,13161.94
1033,13126.23
1034,13075.33
1035,13033.37
1036,13024.07
1037,13045.94
1038,13074.06
1039,13083.9
1040,13069.44
1041,13038.96
1042,13001.36
1043,12968.98
1044,12956.31
1045,12975.06
1046,13012.43
1047,13042.99
1048,13045.18
1049,13024.18
1050,12996.29
1051,12976.24
1052,12970.44
1053,12982.53
1054,13012.33
1055,13043.94
1056,13057.45
1057,13040.48
1058,13004.72
1059,12966.56
1060,12938.04
1061,12920.45
1062,12913.41
1063,12913.91
1064,12913.87
1065,12904.79
1066,12884.48
1067,12860.23
1068,12839.99
1069,12829.62
1070,12832.5
1071,12851.61
1072,12884.3
1073,12922.91
1074,12959.95
1075,12992.59
1076,13021.21
1077,13047.08
1078,13079.09
1079,13130.07
1080,13210.6
1081,13316.97
1082,13439.81
1083,13567.11
1084,13674.61
1085,13734.59
1086,13733.39
1087,13703.63
1088,13687.32
1089,13708.77
1090,13750.2
1091,13787.81
1092,13803.23
1093,13787.45
1094,13732.75
1095,13645.54
1096,13550.11
1097,13470.97
1098,13414.61
1099,13370.86
1100,13329.23
1101,13283.26
1102,13229.16
1103,13164.55
1104,13097.8
1105,13042.4
1106,13009.34
1107,12995.86
1108,12994.66
1109,12999.07
1110,13004.81
1111,13008.18
1112,13008.44
1113,13012.22
1114,13027.18
1115,13053.91
1116,13080.94
1117,13095.97
1118,13097.63
1119,13097.51
1120,13106.81
1121,13117.13
1122,13103.88
1123,13045.53
1124,12955.13
1125,12865.42
1126,12803.03
1127,12755.94
1128,12697.4
1129,12610.22
1130,12515.12
1131,12442.14
1132,12404.19
1133,12370.56
1134,12304.11
1135,12197.07
1136,12091.08
1137,12031.25
1138,12029.03
1139,12058.18
1140,12091.44
1141,12114.91
1142,12124.66
1143,12117.98
1144,12100.31
1145,12081.08
1146,12067.42
1147,12055.39
1148,12037.64
1149,12011.45
1150,11988.03
1151,11981.09
1152,11992.26
1153,12000.32
1154,11982.13
1155,11934.71
1156,11879.4
1157,11837.68
1158,11811.38
1159,11787.12
1160,11752.82
1161,11710.15
1162,11667.46
1163,11631.05
1164,11597.42
1165,11560.18
1166,11518.33
1167,11485.75
1168,11478.68
1169,11496.77
1170,11511.79
1171,11494.05
1172,11442.98
1173,11388.24
1174,11358.53
1175,11355.56
1176,11363.81
1177,11369.12
1178,11367.5
1179,11358.81
1180,11343.83
1181,11326.36
1182,11310.84
1183,11298.12
1184,11281.8
1185,11254.96
1186,11220.73
1187,11194.21
1188,11189.71
1189,11201.46
1190,11209.39
1191,11196.95
1192,11173.44
1193,11158.86
1194,11166.11
1195,11181.96
1196,11187.34
1197,11174.98
1198,11161.55
1199,11166
1200,11186.97
1201,11199.38
1202,11179.37
1203,11134.52
1204,11093.77
1205,11082.16
1206,11098.69
1207,11132.48
1208,11170.5
1209,11192.8
1210,11178.31
1211,11126.38
1212,11072.03
1213,11052.41
1214,11071.27
1215,11099.62
1216,11109.96
1217,11101.79
1218,11089.35
1219,11085.05
1220,11091.94
1221,11110.37
1222,11137.95
1223,11165.69
1224,11183.74
1225,11186.84
1226,11175.54
1227,11151.53
1228,11126.03
1229,11116.98
1230,11138.3
1231,11178.86
1232,11218.28
1233,11241.53
1234,11249.62
1235,11246.49
1236,11234.68
1237,11214.64
1238,11187.2
1239,11162.13
1240,11156.47
1241,11182.73
1242,11220.29
1243,11234.5
1244,11205.36
1245,11161.26
1246,11140.29
1247,11158.32
1248,11194.72
1249,11226.15
1250,11241.84
1251,11241.7
1252,11226.95
1253,11205.48
1254,11188.07
1255,11182.84
1256,11189.07
1257,11204.23
1258,11223.8
1259,11240.15
1260,11245.77
1261,11239.26
1262,11224.22
1263,11205.27
1264,11192.68
1265,11199.02
1266,11227.66
1267,11255.26
1268,11254.06
1269,11219.74
1270,11180.82
1271,11165.78
1272,11170.87
1273,11169.98
1274,11142.34
1275,11097.75
1276,11055.94
1277,11033.54
1278,11039.71
1279,11081.84
1280,11146.44
1281,11196.76
1282,11199.8
1283,11168.76
1284,11141.54
1285,11146.19
1286,11171.97
1287,11198.98
1288,11214.45
1289,11217.83
1290,11210.19
1291,11199.44
1292,11199.04
1293,11219.06
1294,11248.55
1295,11268.85
1296,11268.38
1297,11253.37
1298,11232.78
1299,11214.28
1300,11204.07
1301,11206.9
1302,11214.99
1303,11214.06
1304,11197.14
1305,11183.3
1306,11197.06
1307,11241.7
1308,11288.28
1309,11307.48
1310,11300.42
1311,11289.19
1312,11292.21
1313,11308.52
1314,11331.45
1315,11354.89
1316,11373.92
1317,11384.17
1318,11389.08
1319,11398.76
1320,11420.47
1321,11442.95
1322,11448.21
1323,11431.07
1324,11416.3
1325,11431.77
1326,11476.19
1327,11519.05
1328,11533.49
1329,11527.63
1330,11524.58
1331,11540.85
1332,11574.97
1333,11622.24
1334,11669.05
1335,11691.97
1336,11672.11
1337,11630.64
1338,11607.53
1339,11626.68
1340,11665.28
1341,11692.5
1342,11690.45
1343,11656.4
1344,11591.92
1345,11526.38
1346,11502.67
1347,11541
1348,11594.98
1349,11607.58
1350,11570.88
1351,11534.01
1352,11541.77
1353,11578.73
1354,11601.01
1355,11581.95
1356,11543.38
1357,11514.98
1358,11510.93
1359,11528.38
1360,11562.3
1361,11598.5
1362,11618.75
1363,11617.38
1364,11620.11
1365,11656.17
1366,11724.78
1367,11795.87
1368,11843.25
1369,11871.63
1370,11897.29
1371,11926.13
1372,11942
1373,11928.22
1374,11906.23
1375,11928.76
1376,12030.17
1377,12150.88
1378,12203.42
1379,12157.79
1380,12082
1381,12047.8
1382,12056
1383,12061.14
1384,12031.72
1385,11990.57
1386,11972.18
1387,11978.72
1388,11970.19
1389,11910.77
1390,11822.56
1391,11755.89
1392,11738.08
1393,11735.73
1394,11707.62
1395,11656.67
1396,11627.75
1397,11654.98
1398,11704.79
1399,11721.03
1400,11681.92
1401,11627.38
1402,11600.51
1403,11604.54
1404,11616.76
1405,11621.52
1406,11629.39
1407,11655.81
1408,11690.13
1409,11690.82
1410,11625.29
1411,11534.44
1412,11489.62
1413,11525.69
1414,11599.8
1415,11661.22
1416,11689.64
1417,11687.34
1418,11659.5
1419,11620.3
1420,11586.09
1421,11570.02
1422,11581.2
1423,11623.77
1424,11668.36
1425,11671.14
1426,11617.79
1427,11557.2
1428,11542.74
1429,11575.59
1430,11619.02
1431,11641.69
1432,11635.33
1433,11597.59
1434,11546.98
1435,11526.23
1436,11568.77
1437,11641.05
1438,11684.08
1439,11674.1
1440,11652.05
1441,11660.89
1442,11688.94
1443,11691.38
1444,11645.42
1445,11593.65
1446,11588.14
1447,11633.02
1448,11688.33
1449,11721.12
1450,11738.62
1451,11759.17
1452,11788.31
1453,11814.21
1454,11825.17
1455,11819.48
1456,11799.81
1457,11777.38
1458,11780.12
1459,11833.71
1460,11915.76
1461,11973.97
1462,11979.39
1463,11971.04
1464,11997
1465,12050.79
1466,12078.6
1467,12042.75
1468,11977.79
1469,11935.59
1470,11933.85
1471,11950.16
1472,11962.72
1473,11966.64
1474,11963.03
1475,11956.7
1476,11958.17
1477,11975.98
1478,11998.79
1479,12006.02
1480,11987.66
1481,11955.3
1482,11922.6
1483,11896.86
1484,11881.6
1485,11877
1486,11874.82
1487,11865.59
1488,11842
1489,11798.41
1490,11738.38
1491,11695.39
1492,11706.49
1493,11757.83
1494,11788.69
1495,11757.8
1496,11709.35
1497,11707.05
1498,11760.71
1499,11821.39
1500,11847.37
1501,11846.4
1502,11840.75
1503,11838.45
1504,11829.67
1505,11807.92
1506,11792.18
1507,11809.77
1508,11858.84
1509,11895.96
1510,11884.5
1511,11852.49
1512,11852.9
1513,11903.24
1514,11964.93
1515,11999.33
1516,12003.11
1517,11988.18
1518,11964.41
1519,11938.04
1520,11914.34
1521,11893.48
1522,11873.45
1523,11864.37
1524,11898.04
1525,11998.04
1526,12102.93
1527,12110.91
1528,11995.45
1529,11869.14
1530,11844.74
1531,11910.86
1532,11995.57
1533,12054.27
1534,12093.62
1535,12124.42
1536,12146.24
1537,12153.23
1538,12142.38
1539,12115.87
1540,12078.08
1541,12046.1
1542,12042.76
1543,12070.4
1544,12096.03
1545,12090.57
1546,12079.04
1547,12109.74
1548,12189.98
1549,12261.22
1550,12270.86
1551,12245.25
1552,12241.82
1553,12275.86
1554,12301.15
1555,12277.64
1556,12230.13
1557,12205.92
1558,12218.15
1559,12235.64
1560,12232.92
1561,12228.09
1562,12251.72
1563,12302.15
1564,12341.41
1565,12339.88
1566,12311.37
1567,12280.68
1568,12264.01
1569,12269.38
1570,12300.14
1571,12344.86
1572,12389.14
1573,12422.34
1574,12436.82
1575,12430.52
1576,12416.32
1577,12409.26
1578,12419.2
1579,12452.66
1580,12506.39
1581,12556.36
1582,12579.65
1583,12585.72
1584,12600.1
1585,12634.52
1586,12677.57
1587,12716.53
1588,12744.06
1589,12755.48
1590,12768.67
1591,12829.86
1592,12965.66
1593,13107.76
1594,13166.17
1595,13147.46
1596,13148.7
1597,13232.74
1598,13344.42
1599,13410.42
1600,13418.84
1601,13399.5
1602,13378.21
1603,13370.12
1604,13385.2
1605,13402.67
1606,13387.53
1607,13335.32
1608,13287.51
1609,13277.42
1610,13276.61
1611,13238.52
1612,13159.34
1613,13079.16
1614,13028.03
1615,12996.1
1616,12966.98
1617,12945.4
1618,12950.52
1619,12987.09
1620,13029.09
1621,13049.26
1622,13040
1623,13002.63
1624,12949.24
1625,12906.21
1626,12891.75
1627,12884.42
1628,12854.15
1629,12805.83
1630,12773.8
1631,12776.8
1632,12791.75
1633,12793.8
1634,12799.43
1635,12845.67
1636,12925.84
1637,12967.62
1638,12916.79
1639,12831.35
1640,12798.49
1641,12827.99
1642,12860.66
1643,12855.33
1644,12824.11
1645,12786.59
1646,12752.75
1647,12727.8
1648,12720.73
1649,12746.05
1650,12807.54
1651,12859.7
1652,12847.13
1653,12777.97
1654,12711.89
1655,12688.47
1656,12697.82
1657,12723.17
1658,12748.07
1659,12756.43
1660,12743.81
1661,12719.82
1662,12696.48
1663,12691.03
1664,12719.72
1665,12773.12
1666,12825.39
1667,12854.06
1668,12842.99
1669,12785.89
1670,12723.33
1671,12707.92
1672,12739.44
1673,12771.39
1674,12778.44
1675,12788.66
1676,12830.87
1677,12884.63
1678,12909.2
1679,12887.55
1680,12829.6
1681,12754.35
1682,12703.67
1683,12717.71
1684,12778.22
1685,12835.62
1686,12860.22
1687,12850.53
1688,12811.38
1689,12763.39
1690,12730.7
1691,12732.9
1692,12786.22
1693,12870.62
1694,12907.12
1695,12841.11
1696,12750.74
1697,12742.48
1698,12803.21
1699,12833
1700,12791.7
1701,12750.99
1702,12774.49
1703,12828.28
1704,12852.63
1705,12849.17
1706,12867.05
1707,12914.35
1708,12918.51
1709,12824.7
1710,12714.4
1711,12704.68
1712,12793.14
1713,12883.09
1714,12917.85
1715,12921.87
1716,12922.41
1717,12915.71
1718,12890.26
1719,12860.94
1720,12862.43
1721,12899.12
1722,12920.13
1723,12885.9
1724,12834.78
1725,12823.64
1726,12861.96
1727,12926.15
1728,12987.37
1729,13009.49
1730,12972.34
1731,12921.37
1732,12912.21
1733,12936.21
1734,12946.45
1735,12917.04
1736,12851.43
1737,12767.48
1738,12722.13
1739,12768.82
1740,12866.11
1741,12928.35
1742,12940.04
1743,12963.26
1744,13024.79
1745,13053.39
1746,12981.84
1747,12860.33
1748,12780.3
1749,12778.93
1750,12847.18
1751,12951.56
1752,13016.38
1753,12986.74
1754,12918.03
1755,12888.75
1756,12903.58
1757,12922.18
1758,12922.89
1759,12909.55
1760,12891.66
1761,12890.02
1762,12919.79
1763,12943.28
1764,12904.36
1765,12818.09
1766,12763.01
1767,12773.67
1768,12797.64
1769,12791.64
1770,12791.52
1771,12845.88
1772,12922.95
1773,12946.55
1774,12902.92
1775,12852.75
1776,12837.8
1777,12842.09
1778,12845.84
1779,12856.64
1780,12889.09
1781,12927.67
1782,12935.71
1783,12899.9
1784,12840.98
1785,12780.44
1786,12733.91
1787,12714.16
1788,12721.71
1789,12751.21
1790,12781.79
1791,12780.5
1792,12743.22
1793,12711.84
1794,12718.01
1795,12747.41
1796,12777.07
1797,12788.56
1798,12766.61
1799,12718.14
1800,12668.36
1801,12638.52
1802,12642.65
1803,12684.16
1804,12735.03
1805,12764.21
1806,12761.87
1807,12728.34
1808,12688.55
1809,12685.9
1810,12729.27
1811,12776.9
1812,12798.67
1813,12808.06
1814,12817.75
1815,12793.75
1816,12695.65
1817,12601.28
1818,12661.92
1819,12860.18
1820,12973.58
1821,12893.43
1822,12793.41
1823,12828.19
1824,12903.09
1825,12875.39
1826,12771.12
1827,12699.41
1828,12697.54
1829,12735.65
1830,12783.29
1831,12813.16
1832,12809.22
1833,12788.66
1834,12769.01
1835,12733.58
1836,12658.6
1837,12579.66
1838,12568.25
1839,12628.72
1840,12689.87
1841,12708.29
1842,12702.49
1843,12695.13
1844,12698.32
1845,12719.53
1846,12751.03
1847,12779.02
1848,12790.77
1849,12774.86
1850,12739.17
1851,12714.06
1852,12715.42
1853,12727.88
1854,12737.32
1855,12746.92
1856,12759.4
1857,12751.04
1858,12693.56
1859,12625.01
1860,12623.85
1861,12695.66
1862,12767.61
1863,12781.03
1864,12708.95
1865,12554.82
1866,12401.77
1867,12332.1
1868,12348.89
1869,12425.14
1870,12488.34
1871,12450.43
1872,12370.56
1873,12428.18
1874,12627.99
1875,12736.36
1876,12625.9
1877,12432.31
1878,12299.4
1879,12279.57
1880,12386.9
1881,12527.83
1882,12580.75
1883,12536.11
1884,12448.94
1885,12373.82
1886,12362.68
1887,12402.84
1888,12393.64
1889,12300.34
1890,12240.79
1891,12296.42
1892,12362.72
1893,12330.76
1894,12274.86
1895,12312.09
1896,12403.14
1897,12434.51
1898,12385.35
1899,12306.6
1900,12247.44
1901,12252.2
1902,12309.69
1903,12315.74
1904,12221.77
1905,12142.43
1906,12170.81
1907,12218.7
1908,12178.41
1909,12085.73
1910,12025.62
1911,12052.22
1912,12194.46
1913,12350.27
1914,12323.36
1915,12132.32
1916,12034.1
1917,12121.8
1918,12211.32
1919,12190.43
1920,12163.61
1921,12211.02
1922,12237.34
1923,12155.69
1924,12089.59
1925,12187.97
1926,12340.59
1927,12347.48
1928,12225.39
1929,12115.67
1930,12081.73
1931,12120.44
1932,12187.39
1933,12195.39
1934,12115.28
1935,12009.01
1936,11932.44
1937,11913.03
1938,11950.38
1939,11975.4
1940,11931.27
1941,11856.55
1942,11805.72
1943,11793.87
1944,11818.41
1945,11843.1
1946,11822.52
1947,11775.92
1948,11758.34
1949,11778.35
1950,11807.73
1951,11819.96
1952,11792.28
1953,11743.76
1954,11747.03
1955,11810.89
1956,11831.11
1957,11756.2
1958,11672.42
1959,11644.66
1960,11627.49
1961,11580.39
1962,11549.96
1963,11585.77
1964,11658.37
1965,11716.22
1966,11714.95
1967,11625.47
1968,11518.25
1969,11495.76
1970,11505.51
1971,11417.09
1972,11280.2
1973,11265.24
1974,11357.53
1975,11382.61
1976,11307.21
1977,11252.17
1978,11257.35
1979,11249.64
1980,11199.55
1981,11156.15
1982,11157.74
1983,11210.11
1984,11285.46
1985,11289.84
1986,11188.04
1987,11123.29
1988,11193.87
1989,11264.71
1990,11213.62
1991,11138.91
1992,11152.3
1993,11195.71
1994,11182.14
1995,11119.71
1996,11048.25
1997,11011.84
1998,11044.04
1999,11090.56
2000,11071.68
2001,11016.8
2002,10999.88
2003,10996.72
2004,10936.48
2005,10852.85
2006,10837.38
2007,10859.46
2008,10809.8
2009,10717.3
2010,10713.72
2011,10790.34
2012,10817.36
2013,10746.87
2014,10615.16
2015,10506.94
2016,10548.81
2017,10719.3
2018,10830.44
2019,10809.76
2020,10735.79
2021,10643.72
2022,10501.73
2023,10360.36
2024,10388.48
2025,10581.05
2026,10663.84
2027,10530.28
2028,10371.28
2029,10311.09
2030,10320.12
2031,10343.72
2032,10309.53
2033,10204.96
2034,10127.73
2035,10138.7
2036,10208.14
2037,10280.57
2038,10270.67
2039,10161.58
2040,10076.62
2041,10081.94
2042,10097.64
2043,10070.85
2044,10037.98
2045,10024.82
2046,10014.07
2047,9992.01
2048,9962.609
2049,9922.755
2050,9850.99
2051,9746.999
2052,9656.799
2053,9622.566
2054,9667.607
2055,9759.289
2056,9763.308
2057,9630.764
2058,9492.245
2059,9450.644
2060,9523.041
2061,9649.402
2062,9654.356
2063,9510.07
2064,9448.173
2065,9556.09
2066,9658.797
2067,9655.774
2068,9590.501
2069,9489.08
2070,9338.821
2071,9188.791
2072,9167.838
2073,9253.27
2074,9238.671
2075,9119.422
2076,9122.81
2077,9283.557
2078,9426.94
2079,9449.907
2080,9332.092
2081,9147.343
2082,9041.217
2083,9045.922
2084,9100.788
2085,9122.389
2086,9028.135
2087,8909.074
2088,8939.283
2089,9026.365
2090,8961.704
2091,8830.189
2092,8826.438
2093,8877.529
2094,8822.604
2095,8679.864
2096,8537.902
2097,8497.777
2098,8612.579
2099,8704.152
2100,8610.187
2101,8469.49
2102,8431.211
2103,8453.429
2104,8471.021
2105,8457.344
2106,8402.652
2107,8320.91
2108,8229.043
2109,8143.593
2110,8086.921
2111,8089.532
2112,8146.925
2113,8209.085
2114,8250.175
2115,8272.439
2116,8252.752
2117,8147.992
2118,7970.695
2119,7782.869
2120,7729.294
2121,7949.972
2122,8148.948
2123,7934.955
2124,7645.419
2125,7742.863
2126,7926.152
2127,7823.282
2128,7670.056
2129,7708.381
2130,7780.327
2131,7724.353
2132,7536.037
2133,7316.752
2134,7309.898
2135,7492.074
2136,7467.124
2137,7196.281
2138,7034.925
2139,7037.812
2140,7010.018
2141,6946.956
2142,6955.227
2143,7014.457
2144,7047.355
2145,7010.959
2146,6913.777
2147,6929.845
2148,7144.128
2149,7229.448
2150,6999.342
2151,6764.787
2152,6719.692
2153,6748.947
2154,6757.154
2155,6713.259
2156,6660.861
2157,6694.665
2158,6742.524
2159,6648.753
2160,6501.306
2161,6469.659
2162,6513.248
2163,6540.091
2164,6539.03
2165,6503.353
2166,6388.047
2167,6205.381
2168,6083.191
2169,6083.994
2170,6164.54
2171,6202.521
2172,6037.887
2173,5852.381
2174,5974.689
2175,6158.206
2176,6027.702
2177,5850.567
2178,5912.779
2179,5936.789
2180,5749.876
2181,5637.361
2182,5671.356
2183,5547.417
2184,5314.319
2185,5358.868
2186,5592.686
2187,5656.898
2188,5611.954
2189,5642.224
2190,5634.506
2191,5481.631
2192,5340.873
2193,5305.17
2194,5260.459
2195,5171.266
2196,5121.14
2197,5108.876
2198,5072.381
2199,5070.626
2200,5171.729
2201,5150.495
2202,4854.439
2203,4675.988
2204,4827.478
2205,4949.307
2206,4897.348
2207,4873.886
2208,4885.411
2209,4790.656
2210,4692.042
2211,4739.072
2212,4693.304
2213,4412.684
2214,4374.318
2215,4703.057
2216,4735.799
2217,4378.327
2218,4197.51
2219,4277.359
2220,4382.845
2221,4445.028
2222,4457.301
2223,4389.774
2224,4276.005
2225,4288.376
2226,4340.685
2227,4039.428
2228,3623.05
2229,3706.937
2230,4002.843
2231,3991.194
2232,3881.887
2233,3920.533
2234,4016.006
2235,4029.15
2236,3837.352
2237,3600.404
2238,3629.557
2239,3770.444
2240,3744.774
2241,3590.615
2242,3408.806
2243,3272.455
2244,3232.521
2245,3310.868
2246,3443.983
2247,3521.452
2248,3491.381
2249,3372.125
2250,3330.077
2251,3410.699
2252,3415.625
2253,3298.375
2254,3166.822
2255,3041.225
2256,2896.997
2257,2725.545
2258,2602.48
2259,2768.532
2260,3098.971
2261,3059.655
2262,2755.226
2263,2624.514
2264,2565.122
2265,2403.195
2266,2275.642
2267,2317.249
2268,2564.584
2269,2739.902
2270,2457.169
2271,2107.09
2272,2162.541
2273,2424.36
2274,2621.516
2275,2580.354
2276,2340.222
2277,2100.593
2278,2036.319
2279,2185.122
2280,2203.179
2281,1988.772
2282,1898.65
2283,1973.309
2284,2006.816
2285,1982.89
2286,1942.619
2287,1874.189
2288,1765.336
2289,1624.809
2290,1571.127
2291,1732.158
2292,1877.841
2293,1804.838
2294,1666.399
2295,1561.488
2296,1475.253
2297,1521.503
2298,1777.497
2299,1838.363
2300,1500.004
