400,40827.61
401,40774.67
402,40703.11
403,40634.14
404,40591.41
405,40589.09
406,40598
407,40576.45
408,40486.8
409,40348.76
410,40226.15
411,40183.26
412,40240.93
413,40336.14
414,40396.55
415,40366.32
416,40275.8
417,40183.76
418,40146.05
419,40172.16
420,40232.18
421,40295.19
422,40336.56
423,40344.88
424,40310.43
425,40228.34
426,40121.15
427,40020.98
428,39958.38
429,39937.15
430,39937.62
431,39939.39
432,39927.45
433,39897.94
434,39848.5
435,39778.77
436,39699.58
437,39625.66
438,39571.03
439,39538.2
440,39519.73
441,39507.96
442,39495.47
443,39475.45
444,39441.12
445,39388.3
446,39325.92
447,39267.17
448,39224.19
449,39193.46
450,39159.21
451,39105.49
452,39027.98
453,38943.38
454,38870.52
455,38820.65
456,38770.84
457,38688.64
458,38545.35
459,38357.63
460,38172.86
461,38038.2
462,37968.35
463,37928.35
464,37879.25
465,37794.58
466,37693.19
467,37604.15
468,37552.32
469,37524.02
470,37484.5
471,37399.88
472,37268.04
473,37125.53
474,37011.01
475,36949.37
476,36927.72
477,36926.76
478,36927.64
479,36913.69
480,36869.27
481,36780
482,36655.85
483,36528.95
484,36431.98
485,36380.43
486,36355.79
487,36335.59
488,36301.81
489,36256.16
490,36206.07
491,36158.24
492,36111.27
493,36058.52
494,35993.53
495,35918.04
496,35845.05
497,35788.33
498,35753.26
499,35720.45
500,35666.02
501,35571.12
502,35451.18
503,35335.98
504,35253.96
505,35208.62
506,35181.25
507,35152.55
508,35109.81
509,35052.46
510,34981.21
511,34898.58
512,34814.47
513,34740.55
514,34686.41
515,34642.44
516,34588.55
517,34505.49
518,34396.33
519,34288.93
520,34212.24
521,34177.99
522,34159.33
523,34124.2
524,34048.65
525,33947.59
526,33847.74
527,33773.22
528,33720.68
529,33669.41
530,33598.99
531,33504.61
532,33400.89
533,33303.62
534,33224.35
535,33164.47
536,33123.75
537,33098.25
538,33064.29
539,32991.79
540,32854.66
541,32672.49
542,32494.78
543,32370.42
544,32316.21
545,32308.65
546,32321.75
547,32333.85
548,32333.48
549,32310.82
550,32257.85
551,32175.74
552,32068.46
553,31941.73
554,31820.37
555,31740.95
556,31738.34
557,31797.18
558,31844.29
559,31803.88
560,31648.45
561,31454.95
562,31313.62
563,31289.08
564,31337.28
565,31385.18
566,31367.92
567,31289.55
568,31190.02
569,31108
570,31053.05
571,31006.95
572,30950.58
573,30875.74
574,30793.11
575,30715.22
576,30650.18
577,30591.72
578,30530.71
579,30459.94
580,30384.5
581,30314.31
582,30258.36
583,30213.44
584,30167.67
585,30109.32
586,30038.71
587,29971.36
588,29923.61
589,29899.58
590,29875.72
591,29824.83
592,29730.33
593,29620.22
594,29534.08
595,29504.5
596,29509.09
597,29498.95
598,29428.24
599,29302.1
600,29168.54
601,29076.05
602,29041.46
603,29036.04
604,29027.67
605,28993.67
606,28934.92
607,28855.92
608,28761.93
609,28661.68
610,28564.88
611,28480.94
612,28417.18
613,28379.88
614,28374.36
615,28390.17
616,28403.48
617,28390.45
618,28341.65
619,28267.93
620,28181.59
621,28093.05
622,28008.3
623,27932.66
624,27869.23
625,27811.8
626,27751.84
627,27682.71
628,27611.84
629,27552.88
630,27518.27
631,27503.31
632,27490.75
633,27463.37
634,27413.04
635,27342.37
636,27254.62
637,27158.89
638,27075.61
639,27026.33
640,27020.37
641,27027.94
642,27011.58
643,26942.77
644,26840.48
645,26739.67
646,26671.59
647,26634.12
648,26606.75
649,26569.6
650,26515.33
651,26447.46
652,26369.92
653,26289.13
654,26214.92
655,26157.27
656,26121.76
657,26104.65
658,26101.08
659,26103.91
660,26098.33
661,26067.97
662,26000.26
663,25903.82
664,25794.49
665,25687.85
666,25597.82
667,25537.35
668,25518.08
669,25530.39
670,25547.13
671,25541.19
672,25500.99
673,25434.22
674,25349.76
675,25260.07
676,25184.37
677,25142.54
678,25140.8
679,25146.15
680,25118.76
681,25030.98
682,24909.54
683,24796.24
684,24726.66
685,24693.33
686,24670.31
687,24633.34
688,24577.3
689,24509.3
690,24436.67
691,24367.93
692,24312.71
693,24280.35
694,24267.65
695,24254.56
696,24220
697,24154.16
698,24069.31
699,23980.21
700,23900.86
701,23843.16
702,23818.62
703,23831.9
704,23858.42
705,23865.82
706,23826.77
707,23745.61
708,23639.22
709,23524.86
710,23423.85
711,23359.82
712,23353.97
713,23390.02
714,23421.71
715,23403.44
716,23326.7
717,23224.23
718,23130.5
719,23063.66
720,23016.68
721,22980.42
722,22948.18
723,22918.46
724,22890.46
725,22862.3
726,22828.8
727,22784.16
728,22724.52
729,22654.21
730,22579.74
731,22506.69
732,22435.06
733,22362.71
734,22288.4
735,22218.73
736,22164.3
737,22134.61
738,22124.37
739,22117.92
740,22099.94
741,22065.09
742,22017.37
743,21961.13
744,21899.84
745,21835.93
746,21771.79
747,21712.66
748,21668.53
749,21649.7
750,21656.81
751,21669.43
752,21664.43
753,21626.39
754,21562.11
755,21482.4
756,21398.48
757,21323.33
758,21270.33
759,21248.63
760,21245.46
761,21240.97
762,21217.46
763,21171.87
764,21107.49
765,21028.68
766,20950.13
767,20892.21
768,20873.11
769,20881.54
770,20885.38
771,20853.71
772,20784.83
773,20703.29
774,20634.04
775,20589.28
776,20566.92
777,20563.93
778,20568.87
779,20558.42
780,20508.72
781,20416.66
782,20315.75
783,20243.02
784,20216.31
785,20211.35
786,20198.3
787,20159.04
788,20107.59
789,20063.45
790,20038.9
791,20021.3
792,19992.66
793,19940.13
794,19872.99
795,19806.59
796,19753.27
797,19709.63
798,19666.91
799,19618.88
800,19576.23
801,19556.68
802,19574.23
803,19611.35
804,19634.64
805,19613.43
806,19546.17
807,19449.03
808,19338.72
809,19237.46
810,19171.38
811,19164.38
812,19201.24
813,19233.26
814,19212.61
815,19133.15
816,19030.71
817,18942.23
818,18888
819,18868.6
820,18883.13
821,18915.36
822,18927.91
823,18882.61
824,18778.74
825,18675.31
826,18636
827,18679.74
828,18743.01
829,18753.85
830,18677.24
831,18556.84
832,18446.2
833,18380.04
834,18347.03
835,18328.92
836,18310.39
837,18284.32
838,18245.06
839,18191.15
840,18134.81
841,18090.93
842,18067.54
843,18046.99
844,18005.76
845,17930.6
846,17851.44
847,17809.51
848,17833.4
849,17891.59
850,17934.68
851,17922.96
852,17868.17
853,17799.31
854,17741.88
855,17700.89
856,17673.6
857,17655.91
858,17634.27
859,17591.27
860,17514.46
861,17428.67
862,17375.72
863,17390.11
864,17445.36
865,17484.63
866,17457.79
867,17377.03
868,17288.31
869,17233.45
870,17209.66
871,17188.1
872,17142.87
873,17084.08
874,17044.53
875,17053.38
876,17092.94
877,17113.91
878,17071.04
879,16978.2
880,16891.58
881,16864.32
882,16894.53
883,16938.74
884,16954.93
885,16937.71
886,16910.85
887,16897.33
888,16894.25
889,16877.11
890,16822.79
891,16743.62
892,16682.75
893,16681.83
894,16736.88
895,16802.74
896,16834.48
897,16818.69
898,16771.32
899,16709.3
900,16646.76
901,16595.18
902,16565.11
903,16549.46
904,16523.87
905,16464.61
906,16378.04
907,16300.59
908,16268.25
909,16278.83
910,16291.45
911,16265.01
912,16192.2
913,16100.25
914,16017.3
915,15957.39
916,15919.98
917,15903.72
918,15902.62
919,15906
920,15903.41
921,15895.3
922,15893.23
923,15908.35
924,15929.93
925,15924.93
926,15861.19
927,15747.31
928,15632.88
929,15567.2
930,15556.86
931,15566.18
932,15558.89
933,15521.94
934,15464.83
935,15398.08
936,15335.37
937,15293.36
938,15287.52
939,15308.44
940,15323.99
941,15303.09
942,15248.25
943,15191.62
944,15164.44
945,15165.47
946,15165.9
947,15138.09
948,15086.69
949,15042.59
950,15035.12
951,15059.97
952,15086.73
953,15086.51
954,15059.81
955,15028.74
956,15013.95
957,15011.26
958,14999.26
959,14958.87
960,14902.05
961,14861.13
962,14865.06
963,14903.98
964,14944.28
965,14955.34
966,14938.25
967,14912.21
968,14894.1
969,14878.74
970,14849.33
971,14792.81
972,14726.95
973,14684.46
974,14691.29
975,14723.24
976,14733.84
977,14685.62
978,14600.48
979,14524.42
980,14494.52
981,14495.14
982,14491.27
983,14456.24
984,14407.34
985,14376.42
986,14386.56
987,14419.46
988,14444.61
989,14438.83
990,14409.56
991,14372.29
992,14340.29
993,14318.56
994,14310.17
995,14314.15
996,14316.23
997,14299.47
998,14254.9
999,14196.62
1000,14142.79
1001,14104.49
1002,14074.96
1003,14044.66
1004,14008.41
1005,13970.54
1006,13936.67
1007,13911.6
1008,13896.36
1009,13890.92
1010,13893.85
1011,13898.1
1012,13895.22
1013,13881.06
1014,13866.22
1015,13864.46
1016,13882.29
1017,13904.81
1018,13913.18
1019,13896.89
1020,13866.55
1021,13836.03
1022,13815.17
1023,13805.1
1024,13805.79
1025,13813.25
1026,13816.26
1027,13803.02
1028,13773.73
1029,13747.37
1030,13744.02
1031,13765.24
1032,13788.09
1033,13788.79
1034,13765.57
1035,13741.18
1036,13738.37
1037,13755.62
1038,13768.87
1039,13754.85
1040,13714.78
1041,13668.7
1042,13635.79
1043,13620.18
1044,13616.44
1045,13619.54
1046,13629.44
1047,13648.65
1048,13678.02
1049,13706.84
1050,13719.6
1051,13704.99
1052,13673.82
1053,13644.18
1054,13630.74
1055,13634.1
1056,13651.24
1057,13675.95
1058,13691.74
1059,13680.15
1060,13635.18
1061,13581.65
1062,13548.86
1063,13549.59
1064,13565.01
1065,13572.89
1066,13562.18
1067,13538.45
1068,13508.75
1069,13483.72
1070,13478.25
1071,13506.34
1072,13561.41
1073,13618.33
1074,13653.52
1075,13671.13
1076,13694.5
1077,13744.86
1078,13821.49
1079,13912.08
1080,14006.22
1081,14105.75
1082,14217.3
1083,14343.75
1084,14470.56
1085,14578.3
1086,14652.04
1087,14691.79
1088,14700.62
1089,14686.43
1090,14668.57
1091,14667.82
1092,14685.2
1093,14687.63
1094,14639.57
1095,14538.39
1096,14423.2
1097,14333.91
1098,14274.13
1099,14213.76
1100,14124.34
1101,14013.23
1102,13911.84
1103,13847.91
1104,13816.68
1105,13797.76
1106,13774.55
1107,13751.28
1108,13739.13
1109,13745.96
1110,13767.43
1111,13796.49
1112,13826.36
1113,13850.96
1114,13864.43
1115,13867.6
1116,13872.77
1117,13892.9
1118,13926.4
1119,13954.43
1120,13957.93
1121,13930.83
1122,13877.87
1123,13804.5
1124,13720.34
1125,13637.37
1126,13565.64
1127,13503.38
1128,13444.31
1129,13382.57
1130,13314.14
1131,13235.42
1132,13147.91
1133,13066.03
1134,13006.09
1135,12972.81
1136,12951.41
1137,12925.68
1138,12890.78
1139,12854.55
1140,12825.03
1141,12803.31
1142,12785.3
1143,12768.18
1144,12760.3
1145,12775.45
1146,12820.67
1147,12869.66
1148,12885.92
1149,12849.12
1150,12787.78
1151,12739.38
1152,12721.05
1153,12711.55
1154,12685.95
1155,12638.99
1156,12589.16
1157,12554.82
1158,12531.32
1159,12496.2
1160,12430.12
1161,12342.77
1162,12257.96
1163,12195.76
1164,12158.31
1165,12142.47
1166,12142.98
1167,12148.72
1168,12147.67
1169,12135.72
1170,12122.09
1171,12116.78
1172,12118.53
1173,12114.3
1174,12091.93
1175,12055.02
1176,12017.29
1177,11990.83
1178,11976.94
1179,11972.79
1180,11973.91
1181,11970.1
1182,11950.01
1183,11911.76
1184,11872.55
1185,11851.38
1186,11852.57
1187,11862.95
1188,11868.96
1189,11865.39
1190,11852.99
1191,11833.78
1192,11817.54
1193,11817.29
1194,11838.88
1195,11861.97
1196,11860.38
1197,11825.56
1198,11784.77
1199,11768.75
1200,11782.62
1201,11801.54
1202,11800.99
1203,11781.52
1204,11760.66
1205,11753.71
1206,11760.36
1207,11774.39
1208,11788.37
1209,11791.01
1210,11770.36
1211,11727.04
1212,11683.56
1213,11663.84
1214,11674.34
1215,11704.42
1216,11742.36
1217,11773.46
1218,11781.37
1219,11756.37
1220,11719.57
1221,11700.94
1222,11717.53
1223,11755.38
1224,11796.15
1225,11824.85
1226,11830.83
1227,11806
1228,11771.47
1229,11768.96
1230,11828.44
1231,11906.85
1232,11934.05
1233,11874.22
1234,11793.22
1235,11774.59
1236,11839.3
1237,11912.67
1238,11917.05
1239,11858.3
1240,11810.38
1241,11835.79
1242,11903.55
1243,11943.13
1244,11909.06
1245,11839.1
1246,11787.77
1247,11782.87
1248,11808.29
1249,11844.16
1250,11876.14
1251,11894.62
1252,11892.72
1253,11881.98
1254,11881.86
1255,11905.12
1256,11942.17
1257,11978.9
1258,12003.25
1259,12006.45
1260,11980.85
1261,11932.65
1262,11879.16
1263,11837.46
1264,11820.71
1265,11840.55
1266,11896.21
1267,11950.88
1268,11961.83
1269,11920.17
1270,11864.46
1271,11834.18
1272,11834.88
1273,11848.53
1274,11858.76
1275,11860.55
1276,11852.58
1277,11835.91
1278,11817.1
1279,11803.41
1280,11798.08
1281,11799.91
1282,11807.61
1283,11821.25
1284,11841.66
1285,11868.37
1286,11895.9
1287,11917.63
1288,11929.29
1289,11930.64
1290,11921.88
1291,11904.19
1292,11879.55
1293,11852.01
1294,11837.67
1295,11857.09
1296,11914.73
1297,11974.79
1298,11996.18
1299,11967.71
1300,11912.1
1301,11853.69
1302,11814.6
1303,11815.81
1304,11865.61
1305,11927.51
1306,11955.68
1307,11938.91
1308,11918.69
1309,11937.25
1310,11988.97
1311,12035.23
1312,12046.6
1313,12040.26
1314,12047
1315,12079.49
1316,12115.32
1317,12129.29
1318,12118.64
1319,12099.88
1320,12089.37
1321,12098.77
1322,12137.96
1323,12204.23
1324,12265.43
1325,12286.76
1326,12272.16
1327,12264.43
1328,12299.36
1329,12350.94
1330,12366.71
1331,12322.1
1332,12267.5
1333,12264.05
1334,12322.67
1335,12398.33
1336,12447.29
1337,12459.62
1338,12441.2
1339,12401.77
1340,12361.82
1341,12343.35
1342,12354
1343,12384.58
1344,12423.88
1345,12452.19
1346,12445.64
1347,12395.99
1348,12340.76
1349,12324.64
1350,12354.97
1351,12395.67
1352,12411.82
1353,12397.17
1354,12359.08
1355,12308.38
1356,12265.4
1357,12251.54
1358,12272.46
1359,12316.57
1360,12370.96
1361,12419.84
1362,12446.15
1363,12445.02
1364,12442
1365,12466.19
1366,12519.22
1367,12576.11
1368,12614.9
1369,12639.15
1370,12661.95
1371,12691.98
1372,12728.45
1373,12768.83
1374,12801.92
1375,12809.42
1376,12782.57
1377,12759.98
1378,12794.16
1379,12891.78
1380,12981.39
1381,12990.47
1382,12925.86
1383,12846.26
1384,12797.57
1385,12775.32
1386,12763.53
1387,12747.73
1388,12715.46
1389,12657.81
1390,12593.75
1391,12555.89
1392,12559.39
1393,12573.54
1394,12561.7
1395,12520.53
1396,12478.25
1397,12459.03
1398,12457.84
1399,12459.81
1400,12453.19
1401,12431.93
1402,12391.85
1403,12344.43
1404,12311.37
1405,12307.54
1406,12323.37
1407,12344.16
1408,12360.58
1409,12369.65
1410,12369.37
1411,12361.99
1412,12351.56
1413,12347.28
1414,12369.25
1415,12435.52
1416,12514.91
1417,12539.6
1418,12469.77
1419,12377.94
1420,12361.71
1421,12433.49
1422,12497.77
1423,12468.6
1424,12378.96
1425,12313.29
1426,12318.31
1427,12359.46
1428,12393.9
1429,12410.03
1430,12418.94
1431,12427.48
1432,12425.15
1433,12398.26
1434,12355.89
1435,12333.72
1436,12360.55
1437,12412.93
1438,12447.56
1439,12445.02
1440,12429.92
1441,12429.06
1442,12441.36
1443,12448.84
1444,12441.49
1445,12433.21
1446,12441.19
1447,12462.67
1448,12476.49
1449,12468.99
1450,12463.95
1451,12495.05
1452,12559.97
1453,12607.58
1454,12593.66
1455,12548.52
1456,12534.49
1457,12579.57
1458,12643.84
1459,12682.52
1460,12686.29
1461,12667.99
1462,12644.47
1463,12642.92
1464,12689.89
1465,12765.38
1466,12809.05
1467,12779.03
1468,12714.35
1469,12673.53
1470,12679.19
1471,12711.89
1472,12751.33
1473,12786.54
1474,12809.82
1475,12818.02
1476,12814.96
1477,12805.75
1478,12800.7
1479,12812.47
1480,12837.9
1481,12841.83
1482,12790.62
1483,12709.23
1484,12658.13
1485,12667.66
1486,12688.8
1487,12664.24
1488,12603.5
1489,12566.64
1490,12588.67
1491,12618.64
1492,12591.39
1493,12509.59
1494,12438.24
1495,12427.24
1496,12455.96
1497,12486.94
1498,12507.22
1499,12530.52
1500,12566.24
1501,12596.42
1502,12595.63
1503,12568.61
1504,12558.04
1505,12597.43
1506,12654.31
1507,12673.91
1508,12640.74
1509,12595.37
1510,12576.51
1511,12582.71
1512,12596.85
1513,12611.69
1514,12635.56
1515,12676.24
1516,12727.5
1517,12777.03
1518,12811.05
1519,12813.39
1520,12772.54
1521,12714.92
1522,12684.27
1523,12700.36
1524,12739.74
1525,12775.93
1526,12794.97
1527,12789
1528,12761.26
1529,12735.41
1530,12734.33
1531,12755.93
1532,12785.96
1533,12813.07
1534,12831.55
1535,12838.56
1536,12849.89
1537,12890.11
1538,12954.84
1539,12987.45
1540,12937.79
1541,12849.93
1542,12811.38
1543,12853.8
1544,12912.19
1545,12923.12
1546,12905.3
1547,12913.02
1548,12962.75
1549,13010.01
1550,13015.11
1551,13006.33
1552,13038.4
1553,13112.1
1554,13149.43
1555,13086.94
1556,12982.45
1557,12935.59
1558,12971.19
1559,13017.04
1560,13011.98
1561,12983.22
1562,12984.12
1563,13026.57
1564,13075.76
1565,13101.51
1566,13103.87
1567,13091.22
1568,13081.24
1569,13100.48
1570,13163.99
1571,13246.07
1572,13313.02
1573,13343.83
1574,13327.63
1575,13267.92
1576,13206.83
1577,13189.28
1578,13215.3
1579,13256.32
1580,13299.1
1581,13364.37
1582,13470.17
1583,13574.72
1584,13606.97
1585,13554.57
1586,13502.72
1587,13529.29
1588,13609.42
1589,13680.38
1590,13720.38
1591,13759.26
1592,13823.55
1593,13910.33
1594,14008.37
1595,14102.83
1596,14175.38
1597,14217.27
1598,14249.85
1599,14297.89
1600,14354.6
1601,14391.81
1602,14396.29
1603,14388.14
1604,14388.06
1605,14386.67
1606,14360.54
1607,14305.85
1608,14248.33
1609,14206.49
1610,14149.07
1611,14031.84
1612,13884.38
1613,13812.06
1614,13875.2
1615,13974.08
1616,13985.31
1617,13907.24
1618,13821.57
1619,13783.83
1620,13791
1621,13830.01
1622,13868.27
1623,13865.46
1624,13822.86
1625,13797.31
1626,13828.73
1627,13867.47
1628,13844.51
1629,13773.18
1630,13736.04
1631,13773.5
1632,13813.93
1633,13780.66
1634,13706.52
1635,13679.49
1636,13721.83
1637,13756.48
1638,13720.68
1639,13658.79
1640,13643.35
1641,13679.36
1642,13711.72
1643,13701.1
1644,13654.92
1645,13589.36
1646,13531.26
1647,13512.44
1648,13536.28
1649,13564.86
1650,13568.17
1651,13565.94
1652,13589.42
1653,13633.47
1654,13663.38
1655,13656.55
1656,13620.01
1657,13566.65
1658,13521.75
1659,13515.16
1660,13547.39
1661,13583.35
1662,13599.07
1663,13616.9
1664,13664.81
1665,13718.8
1666,13722.12
1667,13661.51
1668,13599.56
1669,13589.04
1670,13594.18
1671,13555.18
1672,13486.8
1673,13469
1674,13544.25
1675,13661.55
1676,13759.8
1677,13802.41
1678,13764.75
1679,13669.12
1680,13590.86
1681,13581.96
1682,13613.61
1683,13643.69
1684,13650.9
1685,13625.73
1686,13586.35
1687,13589.27
1688,13665.35
1689,13737.21
1690,13712.96
1691,13633.95
1692,13626.51
1693,13722.33
1694,13796.36
1695,13746.97
1696,13641.55
1697,13588.41
1698,13612.32
1699,13677
1700,13742.86
1701,13767.05
1702,13719.59
1703,13635.54
1704,13568.73
1705,13555.07
1706,13616.15
1707,13730.69
1708,13796.66
1709,13734.83
1710,13628.69
1711,13605.42
1712,13669.08
1713,13726.63
1714,13730.54
1715,13725
1716,13749.53
1717,13769.7
1718,13733.22
1719,13662.18
1720,13634.75
1721,13672.68
1722,13694.05
1723,13635.97
1724,13571.69
1725,13603.67
1726,13710.67
1727,13786.09
1728,13777.79
1729,13723.79
1730,13664.73
1731,13618.87
1732,13598.31
1733,13606.62
1734,13641.97
1735,13691.06
1736,13725.02
1737,13723.88
1738,13700.07
1739,13671.98
1740,13653.12
1741,13654.52
1742,13683.14
1743,13741.49
1744,13814.71
1745,13845.54
1746,13787.81
1747,13703.33
1748,13689.5
1749,13750.91
1750,13813.72
1751,13832.11
1752,13816.83
1753,13785.63
1754,13759.87
1755,13758.36
1756,13760.56
1757,13722.92
1758,13652.88
1759,13625.43
1760,13683.12
1761,13761.03
1762,13786.14
1763,13764.18
1764,13733.13
1765,13718.94
1766,13736.42
1767,13779.64
1768,13804.35
1769,13775.29
1770,13712.9
1771,13650.9
1772,13608.62
1773,13596.83
1774,13614.53
1775,13646.9
1776,13669.64
1777,13637.28
1778,13523.1
1779,13421.46
1780,13455.58
1781,13578.81
1782,13625.64
1783,13554.7
1784,13505.73
1785,13567.43
1786,13635.47
1787,13595.32
1788,13498.03
1789,13455.28
1790,13489.54
1791,13551.63
1792,13602.95
1793,13625.01
1794,13608.09
1795,13565.27
1796,13515.57
1797,13487.23
1798,13509.53
1799,13563.88
1800,13592.82
1801,13587.84
1802,13619.87
1803,13724.81
1804,13806.27
1805,13762.98
1806,13633.65
1807,13510.18
1808,13435.58
1809,13414.7
1810,13440.16
1811,13488.39
1812,13535.09
1813,13557.71
1814,13543.38
1815,13531.81
1816,13575.53
1817,13659.45
1818,13724.39
1819,13737.41
1820,13698.34
1821,13631.15
1822,13609.13
1823,13679.65
1824,13748.67
1825,13701.64
1826,13579.7
1827,13499.16
1828,13478.7
1829,13446.98
1830,13388.15
1831,13383.29
1832,13475.41
1833,13565.07
1834,13549.75
1835,13465.05
1836,13391.68
1837,13361.7
1838,13375.54
1839,13423.83
1840,13486.71
1841,13537.92
1842,13540.01
1843,13473.97
1844,13390.27
1845,13346.61
1846,13347.3
1847,13374.96
1848,13407.71
1849,13421.21
1850,13412.09
1851,13401.54
1852,13401.59
1853,13403.07
1854,13403.39
1855,13431.2
1856,13509.92
1857,13587.75
1858,13591
1859,13529.26
1860,13465.18
1861,13428.38
1862,13412.17
1863,13403.33
1864,13380.36
1865,13332.7
1866,13284.3
1867,13258.07
1868,13239.48
1869,13207.26
1870,13185.73
1871,13219.16
1872,13283.06
1873,13296.06
1874,13237.13
1875,13168.32
1876,13136.58
1877,13144.05
1878,13181.68
1879,13221.42
1880,13236.25
1881,13229.87
1882,13216.1
1883,13198.79
1884,13175.72
1885,13138.54
1886,13074.15
1887,12999.4
1888,12972.09
1889,13023.71
1890,13123.76
1891,13221.93
1892,13228.54
1893,13085.47
1894,12946.66
1895,13004.08
1896,13167.27
1897,13213.96
1898,13120.82
1899,13015.84
1900,12943.55
1901,12849.47
1902,12740.85
1903,12737.89
1904,12885.94
1905,13013.72
1906,12980.52
1907,12894.05
1908,12893.08
1909,12945.83
1910,12967.75
1911,12962.14
1912,12975.58
1913,12990.94
1914,12943.62
1915,12837.82
1916,12754.9
1917,12744.13
1918,12797.66
1919,12875.04
1920,12873.94
1921,12741.13
1922,12611.18
1923,12615.14
1924,12684.68
1925,12708.31
1926,12686.88
1927,12665.61
1928,12654.1
1929,12641.96
1930,12640.02
1931,12675.03
1932,12727.35
1933,12726.29
1934,12664.55
1935,12634.35
1936,12669.55
1937,12666.98
1938,12571.27
1939,12509.35
1940,12576.62
1941,12621.1
1942,12485.43
1943,12308.56
1944,12297.29
1945,12421.71
1946,12549.21
1947,12593.58
1948,12503.85
1949,12340.71
1950,12247.21
1951,12252.35
1952,12268.58
1953,12268.62
1954,12310.05
1955,12397.31
1956,12436.36
1957,12384.81
1958,12332.58
1959,12340.57
1960,12340.11
1961,12276.33
1962,12226.18
1963,12262.84
1964,12301.24
1965,12237.47
1966,12134.96
1967,12103.34
1968,12122.39
1969,12118.29
1970,12096.68
1971,12104.86
1972,12120.74
1973,12076.51
1974,11992.88
1975,11966.27
1976,12013.21
1977,12062.72
1978,12061.21
1979,11983.9
1980,11862.37
1981,11811.28
1982,11865.29
1983,11898.42
1984,11845.85
1985,11816.15
1986,11869.99
1987,11880.55
1988,11762.1
1989,11654.71
1990,11679.34
1991,11718.86
1992,11653.03
1993,11595.63
1994,11678.44
1995,11787.91
1996,11762.96
1997,11642.18
1998,11533.08
1999,11494.54
2000,11553.84
2001,11650.72
2002,11688.79
2003,11647.16
2004,11551.74
2005,11472.82
2006,11496.77
2007,11550.17
2008,11458.88
2009,11255.71
2010,11132.88
2011,11175.37
2012,11365.37
2013,11569.21
2014,11555.42
2015,11336.66
2016,11177.34
2017,11136.87
2018,11034.12
2019,10853.98
2020,10796.42
2021,10924.6
2022,11105.51
2023,11223.16
2024,11206.15
2025,11086.9
2026,11045.21
2027,11123.28
2028,11129.58
2029,10993.94
2030,10879.76
2031,10864.28
2032,10838.52
2033,10751.03
2034,10686.96
2035,10702.36
2036,10772.42
2037,10856.55
2038,10901.21
2039,10873.6
2040,10784.83
2041,10678.02
2042,10649.02
2043,10703.57
2044,10654.58
2045,10450.8
2046,10361.62
2047,10505.98
2048,10620.78
2049,10549.43
2050,10442.3
2051,10391.69
2052,10301.89
2053,10144.44
2054,10064.72
2055,10126.91
2056,10202.13
2057,10211.35
2058,10208.07
2059,10210.11
2060,10146.28
2061,10003.24
2062,9882.674
2063,9853.406
2064,9910.665
2065,10018.26
2066,10101.82
2067,10099.15
2068,9973.398
2069,9783.14
2070,9713.898
2071,9823.609
2072,9990.517
2073,10069.4
2074,9909.562
2075,9596.631
2076,9470.811
2077,9579.078
2078,9657.824
2079,9613.743
2080,9528.397
2081,9466.071
2082,9463.93
2083,9464.211
2084,9349.507
2085,9193.762
2086,9186.816
2087,9279.314
2088,9287.781
2089,9218.048
2090,9176.823
2091,9210.307
2092,9314.153
2093,9342.055
2094,9133.488
2095,8820.53
2096,8624.766
2097,8654.688
2098,8916.673
2099,9127.112
2100,9048.833
2101,8922.327
2102,8977.926
2103,9059.167
2104,9031.815
2105,9022.406
2106,9070.454
2107,8929.368
2108,8565.094
2109,8405.985
2110,8578.515
2111,8667.455
2112,8528.294
2113,8423.129
2114,8448.061
2115,8493.533
2116,8510.918
2117,8514.35
2118,8505.53
2119,8472.233
2120,8369.134
2121,8153.778
2122,7966.195
2123,7980.145
2124,8025.793
2125,7891.18
2126,7806.055
2127,7996.478
2128,8168.656
2129,8055.515
2130,7825.67
2131,7675.65
2132,7684.93
2133,7825.298
2134,7909.279
2135,7842.926
2136,7684.641
2137,7528.895
2138,7489.307
2139,7550.475
2140,7594.253
2141,7565.686
2142,7464.994
2143,7395.639
2144,7460.599
2145,7467.413
2146,7233.55
2147,7077.443
2148,7248.875
2149,7371.146
2150,7189.98
2151,7000.856
2152,6976.121
2153,6959.124
2154,6882.199
2155,6824.526
2156,6833.296
2157,6913.225
2158,7008.86
2159,7033.582
2160,6968.539
2161,6842.733
2162,6765.809
2163,6814.121
2164,6831.027
2165,6678.917
2166,6418.115
2167,6177.884
2168,6149.737
2169,6323.375
2170,6425.88
2171,6387.325
2172,6334.441
2173,6298.243
2174,6242.116
2175,6127.203
2176,5944.74
2177,5834.309
2178,5916.903
2179,6109.7
2180,6270.86
2181,6223.851
2182,5988.843
2183,5863.641
2184,5862.213
2185,5726.753
2186,5556.425
2187,5627.991
2188,5712.667
2189,5487.226
2190,5234.53
2191,5256.243
2192,5403.944
2193,5511.288
2194,5531.542
2195,5465.616
2196,5355.61
2197,5222.629
2198,5074.744
2199,4973.116
2200,4979.656
2201,5011.034
2202,4971.503
2203,4880.696
2204,4829.425
2205,4995.931
2206,5268.734
2207,5190.163
2208,4841.203
2209,4700.093
2210,4761.587
2211,4805.361
2212,4790.194
2213,4731.706
2214,4649.441
2215,4554.36
2216,4443.181
2217,4365.134
2218,4413.507
2219,4508.723
2220,4486.939
2221,4397.833
2222,4332.544
2223,4217.85
2224,4036.859
2225,3968.14
2226,4034.606
2227,4042.418
2228,3978.313
2229,3959.963
2230,3972.531
2231,3939.13
2232,3780.437
2233,3537.479
2234,3515.323
2235,3712.17
2236,3709.752
2237,3553.36
2238,3600.675
2239,3741.053
2240,3716.722
2241,3509.366
2242,3232.283
2243,3145.5
2244,3277.833
2245,3373.96
2246,3306.701
2247,3087.315
2248,2972.488
2249,3163.722
2250,3409.459
2251,3499.782
2252,3444.507
2253,3291.942
2254,3099.385
2255,2858.652
2256,2587.233
2257,2559.137
2258,2849.95
2259,2954.833
2260,2784.983
2261,2796.003
2262,2893.791
2263,2710.417
2264,2458.522
2265,2395.661
2266,2362.859
2267,2280.508
2268,2269.065
2269,2307.573
2270,2273.841
2271,2151.134
2272,1974.079
2273,1805.979
2274,1749.985
2275,1945.081
2276,2270.485
2277,2428.389
2278,2339.548
2279,2090.551
2280,1994.036
2281,2099.966
2282,2015.548
2283,1686.769
2284,1358.769
2285,1312.15
2286,1634.669
2287,1838.408
2288,1744.007
2289,1716.002
2290,1742.639
2291,1605.47
2292,1544.681
2293,1716.928
2294,1708.581
2295,1463.14
2296,1395.215
2297,1420.139
2298,1271.548
2299,1200.055
2300,1327.514
