400,37923.77
401,37889.88
402,37889.25
403,37904.36
404,37915.94
405,37907.68
406,37876.54
407,37823.31
408,37749.36
409,37664.63
410,37585.58
411,37528.75
412,37503.46
413,37505.14
414,37527.68
415,37563.32
416,37595.49
417,37604.79
418,37573.14
419,37504.75
420,37422.71
421,37350.56
422,37305.05
423,37288.79
424,37302.59
425,37344.87
426,37400.2
427,37448.33
428,37469.64
429,37453.76
430,37398.48
431,37301.95
432,37174.38
433,37051.8
434,36973.38
435,36967.48
436,37002.4
437,37025.48
438,36987.05
439,36886.59
440,36765.75
441,36667.19
442,36616.61
443,36605.37
444,36620.66
445,36648.36
446,36666.81
447,36652.01
448,36582.01
449,36464.88
450,36332.34
451,36216.43
452,36136.92
453,36091.32
454,36074.8
455,36077.79
456,36068.95
457,36011
458,35871.63
459,35679.09
460,35502.63
461,35411.08
462,35421.43
463,35471.45
464,35492.55
465,35435.93
466,35324.21
467,35196.22
468,35087.9
469,35009.68
470,34958.05
471,34928.97
472,34907.05
473,34862.97
474,34766.74
475,34608.96
476,34436.88
477,34307.22
478,34265.87
479,34286.76
480,34314.22
481,34295.14
482,34224.08
483,34139.18
484,34079.78
485,34058
486,34032.09
487,33954.15
488,33794.11
489,33603.34
490,33456.48
491,33420.75
492,33480.59
493,33567.09
494,33611.68
495,33586.18
496,33517.24
497,33435.36
498,33364.04
499,33306.43
500,33261.88
501,33228.87
502,33199.66
503,33163.91
504,33111.9
505,33043.77
506,32968.58
507,32895.62
508,32832.11
509,32781.53
510,32746.91
511,32726.99
512,32703.1
513,32652.23
514,32554.37
515,32416.5
516,32260.32
517,32107.49
518,31976.32
519,31881.49
520,31837.38
521,31843.06
522,31863.21
523,31857.97
524,31796.95
525,31695.44
526,31582.54
527,31484.9
528,31402.91
529,31320.36
530,31221.39
531,31109.24
532,31010.76
533,30954.13
534,30949.82
535,30964.57
536,30958.57
537,30900.49
538,30802.77
539,30692.07
540,30593.48
541,30514.9
542,30452.84
543,30403.62
544,30361.28
545,30317.07
546,30262.08
547,30194.42
548,30129.24
549,30084.22
550,30071.44
551,30075.25
552,30071.37
553,30037.68
554,29974.64
555,29896.61
556,29817.86
557,29746.33
558,29682.67
559,29627.11
560,29577.67
561,29527.64
562,29469.68
563,29399.48
564,29325.69
565,29260.33
566,29213.2
567,29174.63
568,29124.88
569,29045.33
570,28941.63
571,28842.59
572,28777.53
573,28756.22
574,28754.51
575,28744.95
576,28708.82
577,28655.53
578,28600.23
579,28555.97
580,28522.86
581,28495.91
582,28470.1
583,28439.58
584,28397.98
585,28339.2
586,28267.69
587,28201.18
588,28158.1
589,28142.21
590,28124.06
591,28069.79
592,27957.86
593,27818.13
594,27693.88
595,27622.97
596,27601.46
597,27605.19
598,27610.38
599,27600.4
600,27564.62
601,27492.91
602,27389.85
603,27281.13
604,27193.96
605,27141.83
606,27103.97
607,27054.42
608,26975.62
609,26888.17
610,26823.4
611,26807.48
612,26823.71
613,26833.96
614,26802.25
615,26730.69
616,26653.7
617,26605.95
618,26594.9
619,26589.62
620,26556.49
621,26478.76
622,26379.6
623,26287.91
624,26225.05
625,26181.57
626,26140.04
627,26085.41
628,26019.39
629,25951.18
630,25889.84
631,25842.51
632,25814.93
633,25812.27
634,25824.06
635,25821.18
636,25773.76
637,25672.77
638,25549.23
639,25438.53
640,25365.8
641,25323.67
642,25298.27
643,25277.3
644,25256.53
645,25234.42
646,25209.56
647,25181.37
648,25149.74
649,25114.49
650,25073.9
651,25024.94
652,24964.64
653,24894.87
654,24823.91
655,24760.46
656,24710.76
657,24675.82
658,24655.98
659,24648.49
660,24640.01
661,24614.97
662,24561.9
663,24491.64
664,24422.66
665,24371.18
666,24332.93
667,24292.55
668,24235.57
669,24162.94
670,24088.4
671,24025.72
672,23979.15
673,23941.17
674,23903.56
675,23862.88
676,23824.57
677,23795.02
678,23775.29
679,23751.16
680,23705.75
681,23627.71
682,23530.54
683,23434.6
684,23358
685,23303.4
686,23266.85
687,23244.06
688,23227.64
689,23208.11
690,23176.52
691,23133.18
692,23087.07
693,23047.32
694,23016.21
695,22986.83
696,22951.67
697,22904.32
698,22840.57
699,22756.47
700,22655.47
701,22562.32
702,22505.51
703,22503.11
704,22528.69
705,22543.96
706,22516.35
707,22449.39
708,22360.94
709,22268.56
710,22187.69
711,22132.47
712,22115.61
713,22127.69
714,22141.63
715,22130.76
716,22090.51
717,22041.03
718,22003.38
719,21985.12
720,21972.87
721,21951.58
722,21914.91
723,21875.17
724,21847.06
725,21837.1
726,21827.07
727,21794.15
728,21723.2
729,21631.95
730,21546.92
731,21489.72
732,21452.48
733,21416.2
734,21364.18
735,21299.89
736,21237.22
737,21188.83
738,21150.54
739,21106.38
740,21041.09
741,20958.81
742,20881.82
743,20832.49
744,20815.57
745,20813.91
746,20809.27
747,20795.45
748,20786.06
749,20796.4
750,20828.63
751,20856.18
752,20848.86
753,20788.39
754,20690.94
755,20578.84
756,20472.83
757,20387.6
758,20336.33
759,20326.67
760,20337.53
761,20338.48
762,20303.81
763,20239.99
764,20167.31
765,20104.72
766,20058.75
767,20029
768,20014.56
769,20008.77
770,20000.96
771,19980.77
772,19945.78
773,19900.58
774,19849.97
775,19796.01
776,19737.79
777,19674.31
778,19608.78
779,19550.37
780,19508.56
781,19485.48
782,19470.31
783,19450.96
784,19421.96
785,19392.4
786,19373.22
787,19368
788,19359.81
789,19328.29
790,19261.89
791,19179.6
792,19106.93
793,19062.85
794,19038.13
795,19015.89
796,18982.31
797,18940.1
798,18897.51
799,18862.04
800,18836.08
801,18819.91
802,18812.82
803,18805.98
804,18786.43
805,18743.18
806,18686.1
807,18637.75
808,18618.9
809,18624.94
810,18632.89
811,18620.4
812,18581.58
813,18524.67
814,18458.36
815,18392.42
816,18337.68
817,18304.57
818,18290.13
819,18275.63
820,18241.81
821,18181.48
822,18104.03
823,18020.02
824,17942.76
825,17889.91
826,17879.27
827,17911.77
828,17957.18
829,17982.13
830,17967.34
831,17923.66
832,17865.73
833,17805.85
834,17750.62
835,17705.78
836,17673.23
837,17644.21
838,17608.07
839,17558.46
840,17502.86
841,17451.51
842,17411.57
843,17378.76
844,17346.16
845,17308.9
846,17270.6
847,17237.12
848,17213.49
849,17200.82
850,17199.09
851,17206.21
852,17209.23
853,17191.53
854,17141.52
855,17077.62
856,17029.46
857,17019.99
858,17027.48
859,17011.69
860,16940.14
861,16838.4
862,16758.47
863,16744.67
864,16777.24
865,16804.47
866,16780.26
867,16710.88
868,16631.06
869,16573
870,16542.21
871,16528.49
872,16521.93
873,16517.32
874,16512.47
875,16505.12
876,16491.59
877,16467.32
878,16428.52
879,16382.35
880,16343.81
881,16327.03
882,16332.13
883,16348.61
884,16366.08
885,16379.52
886,16388.13
887,16391.02
888,16383.43
889,16357.38
890,16305.81
891,16239.78
892,16186.13
893,16170.67
894,16191.18
895,16220.15
896,16230.25
897,16213.77
898,16181.32
899,16143.99
900,16109.01
901,16079.9
902,16059.73
903,16045.67
904,16029.07
905,16001.52
906,15965.2
907,15932.86
908,15916.9
909,15910.88
910,15889.34
911,15827.23
912,15728.5
913,15626.81
914,15556.05
915,15525.57
916,15519.42
917,15520.71
918,15515.81
919,15494.41
920,15447.11
921,15381.34
922,15321.78
923,15292.77
924,15293.17
925,15295.91
926,15273.84
927,15222.78
928,15161.62
929,15109.71
930,15075.25
931,15055.46
932,15046.86
933,15041.66
934,15027.86
935,14994.14
936,14945.82
937,14903.98
938,14889.04
939,14898.42
940,14908.48
941,14896.11
942,14860.61
943,14821.16
944,14796.45
945,14785.91
946,14772.62
947,14740.34
948,14691.88
949,14645.52
950,14619.08
951,14617.69
952,14636.58
953,14670.09
954,14703.36
955,14714.69
956,14684.51
957,14621.41
958,14553.56
959,14507.65
960,14489.38
961,14490.7
962,14503.18
963,14516.28
964,14518.26
965,14499.27
966,14468.3
967,14445.08
968,14446.4
969,14461.93
970,14467.12
971,14440.92
972,14391.6
973,14341.65
974,14310.45
975,14294.31
976,14279.28
977,14253.1
978,14215.06
979,14169.14
980,14120.01
981,14076.76
982,14050.05
983,14046.92
984,14055.38
985,14057.15
986,14038.9
987,14010.72
988,13989.61
989,13988.02
990,13999.45
991,14012.41
992,14017.29
993,14011.49
994,13994.05
995,13965.34
996,13930.14
997,13894.12
998,13861.42
999,13831.66
1000,13803.69
1001,13777.86
1002,13758.28
1003,13749.67
1004,13751.45
1005,13751.48
1006,13736.09
1007,13696.28
1008,13644.67
1009,13600.01
1010,13575.74
1011,13564
1012,13551.61
1013,13530.84
1014,13512.57
1015,13511.72
1016,13534.8
1017,13563.38
1018,13574.49
1019,13556.41
1020,13525.92
1021,13504.2
1022,13502.47
1023,13510.4
1024,13514.91
1025,13509.08
1026,13497.36
1027,13485.34
1028,13475.65
1029,13466.24
1030,13454.7
1031,13438.53
1032,13415.21
1033,13382.45
1034,13344.42
1035,13312.51
1036,13298.01
1037,13303.07
1038,13321.41
1039,13346.26
1040,13368.22
1041,13375.91
1042,13359.31
1043,13324.71
1044,13288.71
1045,13266.41
1046,13258.61
1047,13258.71
1048,13260.57
1049,13261.67
1050,13260.97
1051,13258.7
1052,13261.91
1053,13279.85
1054,13317.36
1055,13361.03
1056,13392.8
1057,13399.63
1058,13384.49
1059,13353.52
1060,13314.5
1061,13279.3
1062,13260.3
1063,13259.6
1064,13259.55
1065,13240.65
1066,13201.56
1067,13168.09
1068,13167.46
1069,13203.82
1070,13254.5
1071,13296.12
1072,13320.57
1073,13333.39
1074,13340.73
1075,13349.7
1076,13368.09
1077,13402.88
1078,13453.8
1079,13516.79
1080,13588.22
1081,13667.59
1082,13755.63
1083,13851.54
1084,13947.57
1085,14033.97
1086,14101.03
1087,14138.94
1088,14137.93
1089,14101.21
1090,14062.79
1091,14060.71
1092,14098.53
1093,14120.14
1094,14065.07
1095,13928.32
1096,13775.19
1097,13672.87
1098,13637.45
1099,13637.64
1100,13641.35
1101,13628.62
1102,13587.64
1103,13510.12
1104,13414.86
1105,13333.58
1106,13292.01
1107,13283.08
1108,13288.79
1109,13296.07
1110,13309.74
1111,13338.69
1112,13383.62
1113,13425.04
1114,13440.6
1115,13425.31
1116,13403.88
1117,13403.07
1118,13424.15
1119,13438.06
1120,13415.83
1121,13359.16
1122,13295.12
1123,13248.74
1124,13217.6
1125,13183.69
1126,13132.43
1127,13071.24
1128,13015.95
1129,12976.42
1130,12938.81
1131,12883.5
1132,12801.18
1133,12708.95
1134,12627.89
1135,12570.56
1136,12535.1
1137,12518.26
1138,12514.98
1139,12518.24
1140,12521.32
1141,12523.02
1142,12526.28
1143,12533.09
1144,12536.99
1145,12527.4
1146,12497.29
1147,12457.25
1148,12423.19
1149,12406.69
1150,12406.11
1151,12417.27
1152,12431.85
1153,12433.6
1154,12405.93
1155,12349.22
1156,12284.39
1157,12232.65
1158,12201.5
1159,12187.87
1160,12187.75
1161,12191.65
1162,12187.44
1163,12165.03
1164,12124.03
1165,12066.91
1166,11999.95
1167,11940.02
1168,11905.7
1169,11904.84
1170,11927.32
1171,11961.17
1172,11991.29
1173,11999.34
1174,11969.3
1175,11913.78
1176,11863.65
1177,11844.27
1178,11845.26
1179,11842.64
1180,11819.94
1181,11786.91
1182,11758.96
1183,11744.23
1184,11736.37
1185,11727.38
1186,11713.08
1187,11693.79
1188,11670.49
1189,11649.01
1190,11638.7
1191,11646.67
1192,11664.63
1193,11677.95
1194,11677.13
1195,11671.57
1196,11674.95
1197,11690.55
1198,11700.6
1199,11685.46
1200,11646.5
1201,11609.66
1202,11600.24
1203,11618.22
1204,11646.45
1205,11668.85
1206,11677.94
1207,11669.46
1208,11643
1209,11610.43
1210,11586
1211,11577.6
1212,11581.97
1213,11594.6
1214,11607.74
1215,11610.5
1216,11594.05
1217,11570.25
1218,11562.31
1219,11586.51
1220,11626.66
1221,11657.17
1222,11663.6
1223,11658
1224,11656.04
1225,11662.17
1226,11666.46
1227,11659.16
1228,11645.04
1229,11639.13
1230,11653.99
1231,11686.22
1232,11726.49
1233,11763.41
1234,11779.58
1235,11756.83
1236,11697.13
1237,11633.27
1238,11598.81
1239,11597.28
1240,11607.67
1241,11611.51
1242,11612.45
1243,11623.55
1244,11652.16
1245,11686.74
1246,11711.93
1247,11719.16
1248,11711
1249,11691.17
1250,11664.85
1251,11638.45
1252,11618.91
1253,11616.51
1254,11642.91
1255,11699.39
1256,11753.03
1257,11764.31
1258,11724.81
1259,11675.64
1260,11659.85
1261,11678.8
1262,11700.16
1263,11695.99
1264,11673.39
1265,11653.34
1266,11650.94
1267,11664
1268,11687.1
1269,11713.42
1270,11734.07
1271,11740.79
1272,11735.17
1273,11725.6
1274,11719.18
1275,11715.27
1276,11710.7
1277,11702.78
1278,11689.9
1279,11670.87
1280,11651.89
1281,11647.44
1282,11669.16
1283,11698.81
1284,11702.13
1285,11659.54
1286,11608.07
1287,11597.93
1288,11648.52
1289,11726.65
1290,11795.04
1291,11833.02
1292,11833.38
1293,11793.62
1294,11737.28
1295,11697.44
1296,11694.85
1297,11719.23
1298,11755.38
1299,11784.88
1300,11785.6
1301,11740.73
1302,11682.76
1303,11669.89
1304,11735.72
1305,11825.9
1306,11867.46
1307,11837.93
1308,11791.62
1309,11785.05
1310,11819.02
1311,11856
1312,11866.86
1313,11866.08
1314,11880.83
1315,11920.9
1316,11962.43
1317,11979.07
1318,11969.67
1319,11954.63
1320,11951.76
1321,11958.87
1322,11966.51
1323,11973.18
1324,11996.12
1325,12053.88
1326,12133.81
1327,12191.87
1328,12190.79
1329,12150.82
1330,12116.87
1331,12118.04
1332,12140.69
1333,12164.56
1334,12182.95
1335,12204.25
1336,12235.02
1337,12261.38
1338,12259.84
1339,12222.73
1340,12188.25
1341,12201.23
1342,12254.93
1343,12282.22
1344,12224.47
1345,12120.26
1346,12055.41
1347,12082.27
1348,12154.23
1349,12207.84
1350,12217.87
1351,12203.44
1352,12184.99
1353,12172.82
1354,12172.53
1355,12184.78
1356,12196.66
1357,12193.53
1358,12178.72
1359,12175.23
1360,12202.56
1361,12247.8
1362,12284
1363,12295.61
1364,12295.79
1365,12301.88
1366,12324.73
1367,12368.89
1368,12435.66
1369,12508.18
1370,12562.83
1371,12586.48
1372,12588.39
1373,12580.62
1374,12574.15
1375,12579.06
1376,12602.75
1377,12639.49
1378,12679.55
1379,12711.7
1380,12722.11
1381,12699.08
1382,12659.02
1383,12636.73
1384,12652.88
1385,12675.08
1386,12659.57
1387,12595.95
1388,12517.37
1389,12456.72
1390,12420.33
1391,12401.58
1392,12394.41
1393,12394.33
1394,12397.07
1395,12397.14
1396,12387.88
1397,12364.96
1398,12337.07
1399,12317.19
1400,12309.59
1401,12302.9
1402,12285.24
1403,12258.72
1404,12234.57
1405,12220.8
1406,12213.67
1407,12207.25
1408,12206.68
1409,12230.13
1410,12290.11
1411,12354.91
1412,12374.56
1413,12332.7
1414,12284.43
1415,12289.8
1416,12347.61
1417,12411.17
1418,12442.58
1419,12442.79
1420,12422.15
1421,12392.3
1422,12366.44
1423,12355.1
1424,12348.71
1425,12329.07
1426,12292.58
1427,12266.97
1428,12281.33
1429,12326.71
1430,12366.54
1431,12374.31
1432,12362.68
1433,12352.92
1434,12354.1
1435,12361.12
1436,12369.07
1437,12379.25
1438,12395.33
1439,12418.44
1440,12444.98
1441,12470.96
1442,12493.46
1443,12510.21
1444,12519.54
1445,12521.49
1446,12516.76
1447,12512.76
1448,12523.03
1449,12555.64
1450,12592.39
1451,12607.88
1452,12591.46
1453,12552.43
1454,12503.44
1455,12470.3
1456,12484.39
1457,12553.66
1458,12639.91
1459,12702.25
1460,12731.27
1461,12737.18
1462,12729.53
1463,12715.08
1464,12699.97
1465,12687.27
1466,12677.42
1467,12671.89
1468,12676.64
1469,12698.49
1470,12735.32
1471,12774.56
1472,12803.8
1473,12815.57
1474,12804.2
1475,12774.15
1476,12745.51
1477,12736.38
1478,12738.15
1479,12729.79
1480,12704.07
1481,12681.98
1482,12685.06
1483,12704.02
1484,12710.86
1485,12691.4
1486,12667.9
1487,12666.26
1488,12679.26
1489,12674.66
1490,12634.49
1491,12589.49
1492,12578.05
1493,12591.92
1494,12579.96
1495,12510.6
1496,12437.53
1497,12433.68
1498,12510
1499,12609.97
1500,12680.88
1501,12705.41
1502,12677.5
1503,12616.03
1504,12571.22
1505,12583.82
1506,12629.41
1507,12661.32
1508,12663.83
1509,12665.32
1510,12691.75
1511,12731.23
1512,12757.21
1513,12757.72
1514,12743.95
1515,12728.33
1516,12717.5
1517,12715.57
1518,12721.06
1519,12723.08
1520,12713.06
1521,12707.44
1522,12734.04
1523,12795.51
1524,12849.42
1525,12855.29
1526,12827.3
1527,12805.81
1528,12812.82
1529,12836.15
1530,12860.42
1531,12874.79
1532,12870.67
1533,12853.07
1534,12851.9
1535,12893.96
1536,12958.24
1537,13000.76
1538,13003.25
1539,12994.07
1540,13001.73
1541,13017.08
1542,13013.59
1543,12984.92
1544,12959.65
1545,12964.07
1546,12982.15
1547,12979.73
1548,12955.9
1549,12963.1
1550,13044.88
1551,13153.79
1552,13206.71
1553,13179.21
1554,13132.56
1555,13122.75
1556,13134.68
1557,13128.53
1558,13096.99
1559,13074.91
1560,13091.61
1561,13134.22
1562,13177.14
1563,13207.04
1564,13224.37
1565,13231.64
1566,13236.7
1567,13248.39
1568,13266.21
1569,13280.68
1570,13287.8
1571,13303.41
1572,13345.67
1573,13401.96
1574,13435.26
1575,13425.41
1576,13400.27
1577,13393.84
1578,13415.88
1579,13460.67
1580,13519.27
1581,13576.46
1582,13617.51
1583,13639.29
1584,13644.51
1585,13639.28
1586,13635.18
1587,13644.7
1588,13682.38
1589,13762.78
1590,13872.46
1591,13962.77
1592,14000.49
1593,14030.7
1594,14116.88
1595,14253.54
1596,14370.5
1597,14416.96
1598,14410.53
1599,14381.28
1600,14347.94
1601,14321.59
1602,14309.2
1603,14309.1
1604,14318.41
1605,14333.41
1606,14349.92
1607,14358.86
1608,14343.94
1609,14295.08
1610,14237.46
1611,14206.44
1612,14207.73
1613,14216.65
1614,14215.06
1615,14211.09
1616,14216.26
1617,14216.73
1618,14181.39
1619,14106.93
1620,14048.98
1621,14059.16
1622,14105.19
1623,14118.89
1624,14081.49
1625,14040.39
1626,14032.47
1627,14029.14
1628,13987.28
1629,13916.69
1630,13871.75
1631,13881.82
1632,13909.65
1633,13911.33
1634,13876.68
1635,13813.1
1636,13745.31
1637,13723.62
1638,13781.71
1639,13863.85
1640,13891.91
1641,13867.11
1642,13861.22
1643,13905.81
1644,13921.58
1645,13828.27
1646,13693.24
1647,13657.59
1648,13752.85
1649,13850.81
1650,13844.42
1651,13776.89
1652,13729.84
1653,13733.92
1654,13778.33
1655,13843.86
1656,13895.06
1657,13900.02
1658,13869.7
1659,13833.59
1660,13813.27
1661,13820.52
1662,13856.67
1663,13888.8
1664,13880.98
1665,13849.73
1666,13844.77
1667,13879.64
1668,13904.64
1669,13877.74
1670,13828.13
1671,13805.75
1672,13827.3
1673,13880.33
1674,13946.03
1675,13993.26
1676,13995.35
1677,13970.39
1678,13954.63
1679,13953.69
1680,13938.41
1681,13896.66
1682,13874.24
1683,13918.46
1684,13986.8
1685,13989.73
1686,13922.04
1687,13896.85
1688,13992.33
1689,14120.28
1690,14162.69
1691,14117.36
1692,14056.64
1693,14023.84
1694,14012.66
1695,14012.2
1696,14011.42
1697,14000.1
1698,13980.6
1699,13964.44
1700,13961.76
1701,13979.63
1702,14019.46
1703,14056.46
1704,14059.81
1705,14029.98
1706,13991.78
1707,13962.06
1708,13941.27
1709,13930.05
1710,13939.27
1711,13980.77
1712,14030.84
1713,14037.88
1714,13988.98
1715,13946.14
1716,13965.51
1717,14032.04
1718,14109.14
1719,14167.12
1720,14181.67
1721,14150.59
1722,14110.93
1723,14092
1724,14069.02
1725,14007.37
1726,13944.14
1727,13965.25
1728,14083.35
1729,14191.93
1730,14204.34
1731,14155.04
1732,14105.5
1733,14086.73
1734,14110.89
1735,14162.43
1736,14188.58
1737,14156.93
1738,14109.63
1739,14098.5
1740,14130.67
1741,14190.8
1742,14248.07
1743,14254.88
1744,14192.59
1745,14117.02
1746,14086.68
1747,14105.36
1748,14156.07
1749,14217.38
1750,14264.36
1751,14288.81
1752,14313.8
1753,14351.65
1754,14353.58
1755,14264.56
1756,14142.12
1757,14110.58
1758,14188.18
1759,14252.25
1760,14219.5
1761,14149.19
1762,14117.68
1763,14141.57
1764,14210.73
1765,14280.77
1766,14277.24
1767,14183.74
1768,14095.04
1769,14093.37
1770,14155.98
1771,14232.48
1772,14271.88
1773,14225.05
1774,14114.95
1775,14049.85
1776,14090.87
1777,14170.16
1778,14213.42
1779,14219.07
1780,14210.45
1781,14212.52
1782,14250.72
1783,14316.1
1784,14350.59
1785,14318.8
1786,14264.03
1787,14236.86
1788,14240.5
1789,14259.18
1790,14275.27
1791,14270.04
1792,14244.29
1793,14229.71
1794,14250.03
1795,14294.61
1796,14344.19
1797,14368.23
1798,14335.29
1799,14279.5
1800,14287.93
1801,14365.68
1802,14385.51
1803,14270.66
1804,14140.31
1805,14127.99
1806,14207.13
1807,14289.45
1808,14328.79
1809,14312.09
1810,14247.5
1811,14172.62
1812,14124.25
1813,14130.27
1814,14203.85
1815,14284.14
1816,14293.26
1817,14260.22
1818,14282.1
1819,14364.36
1820,14400.26
1821,14336.89
1822,14256.83
1823,14237.6
1824,14254.73
1825,14261.93
1826,14263.27
1827,14286.72
1828,14322.18
1829,14324.6
1830,14281.29
1831,14235
1832,14223.77
1833,14255.42
1834,14321.09
1835,14348.85
1836,14256.97
1837,14112.96
1838,14075.48
1839,14161.95
1840,14230.86
1841,14218.43
1842,14228.78
1843,14327.79
1844,14379.2
1845,14247.27
1846,14089.87
1847,14157.07
1848,14369.09
1849,14424.55
1850,14272.19
1851,14158.54
1852,14213.16
1853,14299.21
1854,14296.89
1855,14255.83
1856,14248.14
1857,14256.68
1858,14234.34
1859,14185.19
1860,14147.2
1861,14169.14
1862,14309.56
1863,14520.22
1864,14565.64
1865,14323
1866,14056.18
1867,14029.1
1868,14145.77
1869,14214.82
1870,14207.49
1871,14178.18
1872,14142.57
1873,14083.97
1874,14026.61
1875,14050.38
1876,14172.3
1877,14266.82
1878,14237.22
1879,14153.15
1880,14104.65
1881,14087.42
1882,14066.35
1883,14039.44
1884,14023.56
1885,14031.58
1886,14072.23
1887,14139.26
1888,14206.08
1889,14243.36
1890,14219.26
1891,14130.53
1892,14070.08
1893,14123.81
1894,14233.13
1895,14300.44
1896,14306.41
1897,14270.34
1898,14190.08
1899,14048.83
1900,13891.47
1901,13832.8
1902,13914.46
1903,14048.15
1904,14146.21
1905,14154.95
1906,14063.74
1907,14007.64
1908,14110.52
1909,14221.82
1910,14125.81
1911,13933.1
1912,13911.84
1913,14042.95
1914,14089.28
1915,14005.23
1916,13962.27
1917,14023.26
1918,14062.52
1919,13993.16
1920,13853.06
1921,13717.53
1922,13727.58
1923,13966.84
1924,14181.94
1925,14084.47
1926,13842.27
1927,13783.06
1928,13873.66
1929,13880.45
1930,13812.48
1931,13872.49
1932,14061.74
1933,14153.09
1934,14058.02
1935,13915.61
1936,13840.88
1937,13859.93
1938,13956
1939,14022.23
1940,13976.55
1941,13895.53
1942,13868.9
1943,13848.56
1944,13762.33
1945,13702.6
1946,13808.72
1947,13929
1948,13765.78
1949,13466.2
1950,13507.06
1951,13875.96
1952,14063.98
1953,13917.55
1954,13774.2
1955,13792.1
1956,13772.6
1957,13611.33
1958,13481.93
1959,13508.8
1960,13576.53
1961,13567.47
1962,13506.99
1963,13455.8
1964,13487.85
1965,13648.01
1966,13780.7
1967,13694.47
1968,13507.44
1969,13457.2
1970,13506.37
1971,13470.32
1972,13362.85
1973,13334.58
1974,13392.02
1975,13416.21
1976,13390.21
1977,13407.82
1978,13466.56
1979,13435
1980,13271.72
1981,13087.1
1982,12986.39
1983,13040.64
1984,13240.65
1985,13408.29
1986,13425.21
1987,13391.1
1988,13394.4
1989,13376.19
1990,13283.82
1991,13196.54
1992,13194.08
1993,13221.08
1994,13209.62
1995,13222.13
1996,13333.52
1997,13434.73
1998,13372.24
1999,13174.92
2000,12953.9
2001,12840.26
2002,12947.08
2003,13112.89
2004,13053.62
2005,12861.4
2006,12844.98
2007,12991.01
2008,13066.9
2009,13034.7
2010,13008.9
2011,13011.8
2012,12984.43
2013,12924.5
2014,12884.98
2015,12877.9
2016,12870.35
2017,12830.75
2018,12733.41
2019,12619.08
2020,12606.37
2021,12699.63
2022,12748.98
2023,12686.54
2024,12574.17
2025,12478.52
2026,12458.1
2027,12522.83
2028,12607.31
2029,12658.25
2030,12653.48
2031,12575.72
2032,12412.02
2033,12229.28
2034,12235.14
2035,12460.23
2036,12580.07
2037,12441.84
2038,12294.69
2039,12288.11
2040,12287.88
2041,12205.05
2042,12106.24
2043,12058.94
2044,12094.96
2045,12195.63
2046,12249.35
2047,12195.2
2048,12097.87
2049,12039.93
2050,12107.99
2051,12251.21
2052,12147.18
2053,11753.01
2054,11631.07
2055,11970.73
2056,12118.94
2057,11786.98
2058,11535.46
2059,11667.85
2060,11862.31
2061,11890.93
2062,11800.33
2063,11663.47
2064,11551.86
2065,11525.93
2066,11626.99
2067,11803.09
2068,11869.37
2069,11764.45
2070,11613.19
2071,11499.76
2072,11436.16
2073,11401.94
2074,11345.11
2075,11271.32
2076,11250.49
2077,11283.28
2078,11297.64
2079,11279.55
2080,11269.79
2081,11242.93
2082,11124.65
2083,11000.98
2084,11062.54
2085,11194.48
2086,11099.34
2087,10890.12
2088,10900.06
2089,11043.13
2090,11033.5
2091,10911.25
2092,10851.15
2093,10820.29
2094,10715.75
2095,10563.38
2096,10439.52
2097,10428.78
2098,10562.77
2099,10626.04
2100,10457.51
2101,10358.18
2102,10556.96
2103,10712.25
2104,10566.7
2105,10384.97
2106,10367.47
2107,10381.75
2108,10339.81
2109,10318.59
2110,10319.31
2111,10202.76
2112,10039.13
2113,10170.08
2114,10504.41
2115,10491.31
2116,10113.51
2117,9827.23
2118,9744.217
2119,9718.112
2120,9685.708
2121,9637.446
2122,9565.849
2123,9467.639
2124,9361.726
2125,9293.911
2126,9398.5
2127,9736.665
2128,9992.829
2129,9910.244
2130,9663.509
2131,9454.809
2132,9370.379
2133,9399.525
2134,9391.115
2135,9297.045
2136,9227.29
2137,9208.315
2138,9168.165
2139,9091.25
2140,9015.239
2141,9004.415
2142,9119.859
2143,9265.937
2144,9286.069
2145,9115.032
2146,8780.289
2147,8562.029
2148,8654.725
2149,8778.092
2150,8723.29
2151,8650.308
2152,8655.287
2153,8644.67
2154,8571.901
2155,8470.649
2156,8372.796
2157,8302.026
2158,8257.027
2159,8221.667
2160,8194.525
2161,8174.938
2162,8126.105
2163,8030.504
2164,7991.487
2165,8074.559
2166,8168.866
2167,8136.118
2168,7847.833
2169,7448.448
2170,7411.623
2171,7687.056
2172,7759.391
2173,7606.529
2174,7502.505
2175,7442.553
2176,7324.748
2177,7197.128
2178,7144.542
2179,7222.773
2180,7382.577
2181,7367.484
2182,7107.746
2183,6838.206
2184,6718.249
2185,6792.856
2186,6904.511
2187,6814.185
2188,6655.967
2189,6659.814
2190,6729.977
2191,6703.447
2192,6494.988
2193,6166.053
2194,6019.851
2195,6156.567
2196,6393.43
2197,6530.697
2198,6406.817
2199,6198.798
2200,6197.465
2201,6354.98
2202,6503.515
2203,6451.575
2204,6127.964
2205,5712.098
2206,5417.214
2207,5443.887
2208,5709.31
2209,5927.504
2210,6031.217
2211,6046.126
2212,5894.686
2213,5566.216
2214,5334.124
2215,5371.73
2216,5583.11
2217,5743.035
2218,5556.134
2219,5216.547
2220,5159.674
2221,5245.35
2222,5192.414
2223,5057.423
2224,4958.802
2225,4977.997
2226,5083.263
2227,5112.183
2228,5003.779
2229,4800.19
2230,4684.733
2231,4795.021
2232,4832.098
2233,4625.853
2234,4536.851
2235,4618.648
2236,4463.452
2237,4169.329
2238,4162.668
2239,4265.581
2240,4175.49
2241,4142.055
2242,4304.877
2243,4308.9
2244,4070.656
2245,3884.794
2246,3858.833
2247,3939.216
2248,3951.886
2249,3792.665
2250,3709.07
2251,3796.373
2252,3790.671
2253,3653.453
2254,3566.776
2255,3510.797
2256,3394.34
2257,3289.081
2258,3272.487
2259,3334.417
2260,3388.718
2261,3298.104
2262,3226.786
2263,3420.098
2264,3479.369
2265,3098.827
2266,2813.032
2267,2895.111
2268,3054.315
2269,3034.318
2270,2708.198
2271,2400.495
2272,2446.088
2273,2681.166
2274,2887.058
2275,2914.552
2276,2764.814
2277,2560.124
2278,2458.78
2279,2549.986
2280,2668.373
2281,2611.751
2282,2229.642
2283,1872.089
2284,2096.892
2285,2339.668
2286,2039.009
2287,1881.168
2288,2093.998
2289,2013.23
2290,1704.55
2291,1680.478
2292,1853.874
2293,1985.53
2294,1969.239
2295,1843.776
2296,1777.135
2297,1755.52
2298,1698.307
2299,1704.086
2300,1797.569
