400,87059.55
401,87018.94
402,87006.1
403,87020.84
404,87064.41
405,87128.59
406,87161.35
407,87098.15
408,86880.86
409,86542.79
410,86187.66
411,85920.02
412,85788.77
413,85735.56
414,85690.1
415,85598.05
416,85488.88
417,85419.68
418,85443.77
419,85552.7
420,85685.69
421,85780.63
422,85790.4
423,85699.01
424,85494.39
425,85180.37
426,84850.84
427,84631.06
428,84637.01
429,84822.09
430,84996.84
431,84968.42
432,84654.14
433,84205.51
434,83803.37
435,83595.87
436,83550.05
437,83569.62
438,83562.02
439,83494.77
440,83386.76
441,83258.53
442,83125.52
443,82993.07
444,82865.25
445,82744.34
446,82623.3
447,82492.11
448,82341.92
449,82181.57
450,82033.76
451,81921.3
452,81849.21
453,81790.35
454,81714.27
455,81595.89
456,81433.8
457,81233.27
458,81001.14
459,80764.09
460,80562.2
461,80434.91
462,80379.77
463,80330.36
464,80215.16
465,79993.02
466,79732.84
467,79528.31
468,79459.99
469,79488.36
470,79508.15
471,79416.2
472,79187.02
473,78889.57
474,78598.14
475,78370.38
476,78218.66
477,78147.52
478,78152.55
479,78168.76
480,78106.29
481,77881.17
482,77519.16
483,77146.09
484,76890.36
485,76801.8
486,76774.87
487,76686.13
488,76448.47
489,76139.77
490,75885.16
491,75797.14
492,75847.27
493,75916.25
494,75885.57
495,75713.65
496,75463.5
497,75205.31
498,74988.82
499,74803.5
500,74627.73
501,74444.32
502,74266.16
503,74118.77
504,74026.38
505,73990.63
506,73992.98
507,74014.16
508,74028.96
509,74000.93
510,73892.59
511,73681.13
512,73402.35
513,73106.65
514,72841.55
515,72629.74
516,72480.23
517,72401.23
518,72382.51
519,72393.45
520,72402.63
521,72381.83
522,72310.2
523,72167.91
524,71943.86
525,71668.88
526,71386.5
527,71137.2
528,70929.42
529,70751.36
530,70590.95
531,70436.23
532,70275.41
533,70096.77
534,69906.71
535,69756.63
536,69704.57
537,69781.34
538,69875.9
539,69831.27
540,69509.65
541,68995.22
542,68517.48
543,68302.23
544,68387.25
545,68574.18
546,68650.84
547,68499.45
548,68232.16
549,67995.23
550,67900.11
551,67886.27
552,67839.51
553,67659.52
554,67392.65
555,67175.49
556,67140.49
557,67276.27
558,67405.88
559,67344.66
560,67018.02
561,66589.43
562,66252.76
563,66146.7
564,66175.91
565,66182.71
566,66028.7
567,65739.57
568,65426.28
569,65196.18
570,65076.02
571,65015.51
572,64961.89
573,64887.1
574,64805.93
575,64737.33
576,64689.66
577,64636.6
578,64544.88
579,64389.23
580,64194.77
581,64006.34
582,63865.39
583,63769.29
584,63683.86
585,63575.2
586,63437.19
587,63299.01
588,63191.8
589,63116.88
590,63008.31
591,62791.23
592,62425.68
593,62017.98
594,61712.42
595,61630.11
596,61709.93
597,61803.04
598,61768.16
599,61592.42
600,61370.93
601,61200.48
602,61116.31
603,61065.14
604,60987.11
605,60844.61
606,60655.51
607,60446.26
608,60243.5
609,60075.41
610,59970.52
611,59949.95
612,59973.14
613,59968.67
614,59869.32
615,59680.68
616,59470
617,59305.25
618,59209.72
619,59143.96
620,59063.95
621,58943.39
622,58797.86
623,58648.96
624,58511.35
625,58371.27
626,58207.63
627,58005.76
628,57797.97
629,57637.42
630,57571.77
631,57573.24
632,57558.48
633,57445.56
634,57228.19
635,56989.82
636,56818.32
637,56751.96
638,56733.85
639,56696.54
640,56594.77
641,56453.67
642,56312.19
643,56201.18
644,56107.84
645,56004.74
646,55868.69
647,55715.23
648,55581.2
649,55500.96
650,55464.16
651,55421.58
652,55323.95
653,55163.38
654,54987.85
655,54848.85
656,54771.83
657,54727.08
658,54678.09
659,54597.31
660,54487.66
661,54358.52
662,54218.89
663,54076.2
664,53937.27
665,53808.43
666,53691.68
667,53586.68
668,53492.66
669,53401.79
670,53300.43
671,53175.16
672,53025.86
673,52868.74
674,52720.89
675,52591.57
676,52475.24
677,52364.84
678,52254.69
679,52143.08
680,52029.06
681,51910.33
682,51778.68
683,51624.29
684,51441.47
685,51253.77
686,51097.26
687,51004.42
688,50968.21
689,50956.25
690,50936.46
691,50887.81
692,50799.58
693,50661.98
694,50485.34
695,50307.18
696,50166.52
697,50074.61
698,49988.37
699,49858.6
700,49663.88
701,49462.79
702,49327.99
703,49306.26
704,49333.79
705,49317.27
706,49181.88
707,48969.95
708,48770.11
709,48661.84
710,48636.39
711,48634.76
712,48600.09
713,48514.23
714,48390.1
715,48241.55
716,48086.75
717,47948.64
718,47849.98
719,47794.57
720,47756.97
721,47709.37
722,47633.96
723,47534.34
724,47416.85
725,47288.14
726,47155.85
727,47027.75
728,46909.05
729,46793.71
730,46672.79
731,46540.03
732,46406.13
733,46288.05
734,46200.48
735,46137.82
736,46083.95
737,46023.38
738,45949.11
739,45860.14
740,45755.57
741,45633.84
742,45492.8
743,45330.62
744,45157.38
745,44998
746,44877.95
747,44805.1
748,44758.5
749,44714.67
750,44660.29
751,44604.07
752,44557.61
753,44523.05
754,44474.98
755,44383.16
756,44231.04
757,44055.57
758,43906.64
759,43823.15
760,43787.52
761,43763.75
762,43719.15
763,43643.49
764,43536.2
765,43398.31
766,43246.35
767,43105.35
768,42998.21
769,42919.64
770,42844.3
771,42747.68
772,42627.43
773,42501.03
774,42386.24
775,42290.32
776,42208.68
777,42136.11
778,42064.8
779,41983.46
780,41880.66
781,41755.25
782,41624.26
783,41506.44
784,41409.91
785,41319.36
786,41216.41
787,41093.32
788,40971.55
789,40877.52
790,40827.6
791,40803.37
792,40778.95
793,40733.35
794,40666.53
795,40584.19
796,40492.19
797,40397.66
798,40308.09
799,40228.99
800,40152.32
801,40064.47
802,39954.1
803,39829.24
804,39707.7
805,39604.92
806,39510.96
807,39400.45
808,39251.04
809,39083.19
810,38948.36
811,38894.58
812,38900.66
813,38886.09
814,38772.43
815,38565.57
816,38356.36
817,38236.64
818,38223.4
819,38245.49
820,38228.02
821,38142.74
822,38025.26
823,37915.45
824,37835.51
825,37779.64
826,37739.49
827,37702.53
828,37648.46
829,37556.3
830,37424.13
831,37290.57
832,37199.3
833,37169.88
834,37162.76
835,37129.66
836,37038.57
837,36903.43
838,36746.17
839,36588.94
840,36454.83
841,36367.01
842,36334.89
843,36316.96
844,36259.98
845,36127.61
846,35954.49
847,35793.92
848,35688.12
849,35627.15
850,35585.48
851,35541.63
852,35495.34
853,35453.52
854,35421.31
855,35393.37
856,35360.42
857,35314.12
858,35252.27
859,35175.21
860,35084.34
861,34988.98
862,34902.07
863,34834.76
864,34783.43
865,34737.19
866,34685.4
867,34620.39
868,34536.12
869,34428.34
870,34311.14
871,34209.27
872,34144.84
873,34109.49
874,34075.68
875,34017.75
876,33935.64
877,33846.57
878,33767.04
879,33701.12
880,33643.98
881,33590.78
882,33538.82
883,33487.09
884,33434.57
885,33380.07
886,33322.13
887,33259.54
888,33194.59
889,33132.43
890,33078.09
891,33032.45
892,32992.76
893,32956.16
894,32919.21
895,32877.98
896,32828.6
897,32768.83
898,32697.98
899,32615.81
900,32530.72
901,32459.39
902,32417.73
903,32399.01
904,32374.21
905,32314.84
906,32224.02
907,32136.44
908,32086.7
909,32077.28
910,32078.09
911,32058.53
912,32008.35
913,31938.13
914,31859.05
915,31774.83
916,31681.53
917,31575.23
918,31460.81
919,31352.29
920,31263.55
921,31197.76
922,31146.98
923,31102.71
924,31054.13
925,30988.03
926,30891.94
927,30771.45
928,30650.33
929,30552.26
930,30482.25
931,30426.92
932,30372.57
933,30314.94
934,30258.95
935,30209.46
936,30163.23
937,30109.35
938,30037.4
939,29952.01
940,29871.61
941,29813.96
942,29777.16
943,29741.87
944,29689.29
945,29619.49
946,29548.57
947,29492.16
948,29450.48
949,29411.27
950,29362.85
951,29307.86
952,29259.97
953,29231.62
954,29214.28
955,29184.06
956,29119.17
957,29029.48
958,28946.81
959,28900.31
960,28883.35
961,28865.85
962,28820.76
963,28756.47
964,28703.12
965,28687.04
966,28694.97
967,28691.1
968,28643.62
969,28557.65
970,28457.88
971,28367.78
972,28300.53
973,28264.22
974,28263.51
975,28278.2
976,28277
977,28233.34
978,28151.61
979,28048.73
980,27941.5
981,27846
982,27778.05
983,27749.9
984,27755.12
985,27781.09
986,27813.83
987,27832.57
988,27814.61
989,27745.36
990,27644.38
991,27540.2
992,27456.81
993,27401.48
994,27377.6
995,27380.54
996,27379.35
997,27337.74
998,27236.26
999,27103.88
1000,26978.16
1001,26883.93
1002,26813.98
1003,26756.17
1004,26705.25
1005,26671.29
1006,26666.41
1007,26694.03
1008,26717.72
1009,26689.67
1010,26582.06
1011,26447
1012,26356.47
1013,26356.77
1014,26405.74
1015,26442.17
1016,26423.73
1017,26363.89
1018,26286.39
1019,26212.7
1020,26158.68
1021,26139.17
1022,26155.69
1023,26180.78
1024,26183.45
1025,26147.44
1026,26083.72
1027,26006.19
1028,25930.59
1029,25875.65
1030,25859.57
1031,25873.18
1032,25871.01
1033,25807
1034,25685.32
1035,25565.96
1036,25508.97
1037,25519.24
1038,25550.46
1039,25556.71
1040,25525.88
1041,25471.98
1042,25409.84
1043,25356.17
1044,25328.89
1045,25341.81
1046,25372.87
1047,25381.46
1048,25334.26
1049,25247.86
1050,25159.64
1051,25100.68
1052,25068.83
1053,25050.97
1054,25036.55
1055,25025.68
1056,25021.16
1057,25023.42
1058,25025.23
1059,25017.87
1060,24995.07
1061,24956.74
1062,24903.73
1063,24842.9
1064,24792.63
1065,24772.16
1066,24781.21
1067,24790.26
1068,24768.5
1069,24717.73
1070,24677.61
1071,24687.58
1072,24743.34
1073,24801.13
1074,24819.21
1075,24798.19
1076,24768.05
1077,24757.19
1078,24775.43
1079,24822.77
1080,24897.57
1081,24988.17
1082,25079
1083,25154.14
1084,25196.03
1085,25186.66
1086,25121.46
1087,25040.18
1088,24991.53
1089,25002.11
1090,25046.02
1091,25089.82
1092,25104.57
1093,25069.05
1094,24963.89
1095,24808.04
1096,24669.04
1097,24613.76
1098,24634.42
1099,24653.98
1100,24599.13
1101,24473.24
1102,24331.36
1103,24223.52
1104,24152.76
1105,24099.55
1106,24049.44
1107,24015.93
1108,24021.85
1109,24075.09
1110,24129.05
1111,24124.89
1112,24037.18
1113,23923.23
1114,23852.37
1115,23855.51
1116,23897.97
1117,23939.27
1118,23958.33
1119,23957.08
1120,23938.58
1121,23902.05
1122,23843.59
1123,23760.94
1124,23669.09
1125,23592.88
1126,23551.75
1127,23531.46
1128,23504.98
1129,23451.7
1130,23376.55
1131,23290.74
1132,23203.71
1133,23120.42
1134,23045.1
1135,22982.9
1136,22940.41
1137,22923.82
1138,22924
1139,22914.63
1140,22871.06
1141,22804.53
1142,22752.98
1143,22749.21
1144,22778.88
1145,22804.79
1146,22796.77
1147,22759.98
1148,22710.36
1149,22662.58
1150,22627.5
1151,22615.08
1152,22622.12
1153,22620.45
1154,22580.02
1155,22498.88
1156,22408.99
1157,22342.75
1158,22308.19
1159,22294.48
1160,22290.8
1161,22290.09
1162,22287.11
1163,22278.54
1164,22270.01
1165,22269.82
1166,22281.1
1167,22292.71
1168,22291.24
1169,22277.78
1170,22277.77
1171,22317.33
1172,22382.65
1173,22418.48
1174,22373.61
1175,22265.29
1176,22154.51
1177,22092.8
1178,22069.08
1179,22048.44
1180,22005.91
1181,21951.15
1182,21901.28
1183,21865.98
1184,21839.95
1185,21816.2
1186,21791.32
1187,21766.14
1188,21741.6
1189,21716.99
1190,21690.41
1191,21660.4
1192,21628.67
1193,21598.27
1194,21570.84
1195,21542.86
1196,21509.7
1197,21470.67
1198,21433.14
1199,21405.21
1200,21387.01
1201,21369.39
1202,21343.47
1203,21310.42
1204,21278.2
1205,21254.09
1206,21240.5
1207,21237.98
1208,21243.75
1209,21244.35
1210,21224.43
1211,21187.28
1212,21168.84
1213,21206.23
1214,21289.76
1215,21363.86
1216,21377.88
1217,21345.68
1218,21316.36
1219,21326.71
1220,21354.71
1221,21361.35
1222,21328.46
1223,21287.63
1224,21276.84
1225,21299.76
1226,21315.94
1227,21285.49
1228,21213.73
1229,21137.85
1230,21090.49
1231,21073.08
1232,21075.5
1233,21087.77
1234,21100.48
1235,21104.47
1236,21096.73
1237,21083.79
1238,21072.46
1239,21061.37
1240,21042.46
1241,21009.51
1242,20970.38
1243,20938.88
1244,20925.14
1245,20926.99
1246,20939.7
1247,20955.32
1248,20960.62
1249,20943.04
1250,20911.06
1251,20891.08
1252,20905.16
1253,20940.36
1254,20968.54
1255,20969.86
1256,20951.92
1257,20927.88
1258,20906.21
1259,20887.91
1260,20873.26
1261,20861.77
1262,20852.31
1263,20844.13
1264,20838.91
1265,20839.33
1266,20846.39
1267,20856.29
1268,20864.36
1269,20868.39
1270,20869.67
1271,20869.39
1272,20864.76
1273,20850.21
1274,20821.87
1275,20785.02
1276,20747.96
1277,20720.13
1278,20713.7
1279,20740.53
1280,20793.4
1281,20843.75
1282,20864.33
1283,20850.12
1284,20808.02
1285,20749.84
1286,20705.69
1287,20709.74
1288,20768.74
1289,20842.73
1290,20889.05
1291,20896.04
1292,20876.98
1293,20845.74
1294,20815.17
1295,20797.79
1296,20799.81
1297,20811.68
1298,20821.57
1299,20823.32
1300,20817.19
1301,20804.71
1302,20795.72
1303,20804.44
1304,20834.17
1305,20849.66
1306,20807.84
1307,20706.67
1308,20606.62
1309,20568.9
1310,20596.25
1311,20651.08
1312,20699.98
1313,20733.27
1314,20748.25
1315,20747.91
1316,20746.12
1317,20757.3
1318,20782.77
1319,20812.64
1320,20838.03
1321,20858.42
1322,20876.31
1323,20892.81
1324,20905.73
1325,20912.72
1326,20919.49
1327,20939.86
1328,20984.59
1329,21040.3
1330,21083.32
1331,21099.29
1332,21099
1333,21097.43
1334,21109.87
1335,21151.89
1336,21233.13
1337,21316.46
1338,21342.77
1339,21284.21
1340,21203.49
1341,21177.7
1342,21221.47
1343,21276.35
1344,21286.38
1345,21250.35
1346,21193.64
1347,21138.75
1348,21099.23
1349,21086.53
1350,21096.88
1351,21108.84
1352,21103.54
1353,21090.54
1354,21092.83
1355,21120.67
1356,21148.58
1357,21146
1358,21113.9
1359,21087.76
1360,21099.02
1361,21137.48
1362,21174.89
1363,21195.18
1364,21213.11
1365,21247.16
1366,21293.47
1367,21326.36
1368,21325.96
1369,21313.43
1370,21325.2
1371,21377.09
1372,21441.18
1373,21485.41
1374,21503.09
1375,21508.35
1376,21514.27
1377,21525.84
1378,21545.58
1379,21573.02
1380,21602.53
1381,21628.04
1382,21643.9
1383,21644.78
1384,21627.52
1385,21596.95
1386,21559.65
1387,21518.82
1388,21473.22
1389,21422.61
1390,21377.31
1391,21352.81
1392,21354.18
1393,21359.17
1394,21342.33
1395,21305.52
1396,21276.51
1397,21276.24
1398,21282.78
1399,21259.98
1400,21200.19
1401,21146.92
1402,21144.15
1403,21176.84
1404,21191.49
1405,21154.73
1406,21105.56
1407,21097.26
1408,21136.1
1409,21172.76
1410,21163.49
1411,21124.96
1412,21098.92
1413,21111.17
1414,21153.35
1415,21213.15
1416,21284.68
1417,21366.71
1418,21451.04
1419,21502.07
1420,21478.91
1421,21396.61
1422,21340.87
1423,21384.71
1424,21476.79
1425,21512.08
1426,21445.62
1427,21361.45
1428,21353.63
1429,21422.54
1430,21500.55
1431,21532.92
1432,21518.32
1433,21467.74
1434,21399.08
1435,21338.2
1436,21307.57
1437,21305.16
1438,21319.62
1439,21339.49
1440,21353.34
1441,21351.39
1442,21342.18
1443,21345.37
1444,21368.25
1445,21381.84
1446,21352.89
1447,21294.69
1448,21263.37
1449,21299.74
1450,21366.88
1451,21406.62
1452,21403.15
1453,21398.1
1454,21429.46
1455,21479.5
1456,21506.62
1457,21494.44
1458,21476.42
1459,21488.38
1460,21526.08
1461,21560.37
1462,21573.87
1463,21583.87
1464,21612.33
1465,21654.29
1466,21681.4
1467,21675.53
1468,21663.12
1469,21680.87
1470,21728.84
1471,21764.15
1472,21752.04
1473,21718.35
1474,21709.76
1475,21738.84
1476,21765.12
1477,21750.65
1478,21714.15
1479,21700.82
1480,21729.72
1481,21766.68
1482,21775.15
1483,21762.73
1484,21763.78
1485,21791.89
1486,21805.97
1487,21760.63
1488,21677.24
1489,21627.66
1490,21655.26
1491,21706.1
1492,21709.68
1493,21663.46
1494,21627.28
1495,21644.42
1496,21681.82
1497,21688.82
1498,21658.65
1499,21632.29
1500,21641.86
1501,21664.5
1502,21661.77
1503,21629.9
1504,21608.82
1505,21632.56
1506,21685.6
1507,21735.33
1508,21762.11
1509,21764.86
1510,21746.76
1511,21729.02
1512,21739.72
1513,21785.39
1514,21838.63
1515,21873.46
1516,21895.91
1517,21925.59
1518,21964.69
1519,21985.63
1520,21963.61
1521,21918.06
1522,21888.74
1523,21897.19
1524,21932.12
1525,21977.81
1526,22010.98
1527,22004.87
1528,21960.59
1529,21930.46
1530,21964.76
1531,22050.34
1532,22143.12
1533,22210.21
1534,22240.01
1535,22227.22
1536,22199.57
1537,22200.53
1538,22241.83
1539,22277.77
1540,22263.88
1541,22213.13
1542,22165.14
1543,22140.93
1544,22129.04
1545,22118.03
1546,22119.5
1547,22154.88
1548,22222.55
1549,22283.82
1550,22304.56
1551,22302.92
1552,22317.51
1553,22354.98
1554,22375.19
1555,22345.97
1556,22303.07
1557,22305.25
1558,22353.31
1559,22372.87
1560,22308.59
1561,22225.97
1562,22225.29
1563,22320.76
1564,22429.67
1565,22483.67
1566,22497.14
1567,22505.41
1568,22528.43
1569,22571.46
1570,22634.97
1571,22705.13
1572,22765.1
1573,22799.63
1574,22794.77
1575,22753.21
1576,22722.94
1577,22754.82
1578,22841.79
1579,22939.9
1580,23016.96
1581,23067.7
1582,23091.93
1583,23103.53
1584,23123.26
1585,23154.44
1586,23171.51
1587,23155.11
1588,23141.16
1589,23185.08
1590,23287.58
1591,23380.59
1592,23409.68
1593,23401.05
1594,23401.96
1595,23433.96
1596,23494.55
1597,23573.39
1598,23638.83
1599,23658.4
1600,23642.76
1601,23631.83
1602,23652.47
1603,23701.83
1604,23770.38
1605,23826.35
1606,23828.21
1607,23785.85
1608,23786.25
1609,23896.63
1610,24048.96
1611,24135.67
1612,24145.57
1613,24166.42
1614,24257.26
1615,24367.21
1616,24427.23
1617,24425.59
1618,24389.87
1619,24338.75
1620,24270.55
1621,24183.68
1622,24095.68
1623,24031.89
1624,23988.02
1625,23920.3
1626,23797.06
1627,23651.03
1628,23530.55
1629,23454.25
1630,23415.74
1631,23403.82
1632,23397.27
1633,23376.22
1634,23346.83
1635,23328.29
1636,23322.24
1637,23303.77
1638,23258.28
1639,23230.22
1640,23277.09
1641,23370.92
1642,23407.62
1643,23333.41
1644,23232.27
1645,23197.75
1646,23212.76
1647,23204.52
1648,23155.43
1649,23128.61
1650,23172.39
1651,23241.24
1652,23267.39
1653,23244.08
1654,23214.1
1655,23205.49
1656,23209.24
1657,23211.54
1658,23201.37
1659,23169.49
1660,23128.21
1661,23115.89
1662,23156.79
1663,23220.4
1664,23267.17
1665,23291.47
1666,23309.3
1667,23328.74
1668,23343.67
1669,23347.65
1670,23339.96
1671,23322.17
1672,23304.75
1673,23305.91
1674,23332.79
1675,23365.88
1676,23385.72
1677,23400.63
1678,23429.67
1679,23456.85
1680,23426.45
1681,23318.64
1682,23230.13
1683,23264.4
1684,23378.76
1685,23452.65
1686,23438.32
1687,23390.84
1688,23361.81
1689,23360.49
1690,23385.96
1691,23435.07
1692,23503.05
1693,23573.03
1694,23608.6
1695,23581.26
1696,23506.08
1697,23411.67
1698,23345.93
1699,23370.27
1700,23483.28
1701,23569.34
1702,23532.56
1703,23433.39
1704,23375.66
1705,23395.62
1706,23476.59
1707,23581.75
1708,23638.77
1709,23591.94
1710,23490.87
1711,23415.72
1712,23402.36
1713,23451.44
1714,23540.37
1715,23604.5
1716,23596.58
1717,23579.49
1718,23642.06
1719,23752.74
1720,23789.03
1721,23700.81
1722,23572.02
1723,23486.07
1724,23459.5
1725,23488.34
1726,23547.38
1727,23596.79
1728,23610.13
1729,23582.98
1730,23522.35
1731,23472.17
1732,23480.76
1733,23544.59
1734,23628.98
1735,23700.55
1736,23728.34
1737,23697.72
1738,23646.11
1739,23618.03
1740,23629.18
1741,23680.17
1742,23745.37
1743,23770.39
1744,23730.94
1745,23681.61
1746,23676.41
1747,23691.19
1748,23675.72
1749,23639.35
1750,23641.55
1751,23698.13
1752,23741.17
1753,23718.22
1754,23682.96
1755,23709.54
1756,23781.05
1757,23825.61
1758,23814.96
1759,23779.3
1760,23745.91
1761,23721.67
1762,23709.13
1763,23705.88
1764,23708.14
1765,23725.61
1766,23779.77
1767,23863.34
1768,23914.22
1769,23881.97
1770,23791.13
1771,23686.36
1772,23615.9
1773,23628.48
1774,23717.8
1775,23812.4
1776,23855.97
1777,23839.36
1778,23771.79
1779,23724.3
1780,23779.36
1781,23888.36
1782,23911.24
1783,23818.74
1784,23742.88
1785,23772.1
1786,23828.7
1787,23820.41
1788,23760.35
1789,23702.44
1790,23680.72
1791,23712.72
1792,23787.01
1793,23847.27
1794,23851.79
1795,23818.84
1796,23779.23
1797,23766.85
1798,23813.54
1799,23893.85
1800,23935.63
1801,23912.51
1802,23872.85
1803,23858.25
1804,23867.77
1805,23892.7
1806,23927.72
1807,23967.91
1808,23994.65
1809,23979.45
1810,23932.1
1811,23918.2
1812,23969.06
1813,24008.34
1814,23961.37
1815,23867.84
1816,23802.95
1817,23788.92
1818,23812.89
1819,23860.71
1820,23917.5
1821,23965.09
1822,23978.24
1823,23943.92
1824,23906.19
1825,23915.85
1826,23947.4
1827,23938.72
1828,23880.45
1829,23812.28
1830,23772.69
1831,23794.93
1832,23887.08
1833,23982.48
1834,24009.94
1835,23954.4
1836,23826.42
1837,23701.35
1838,23692.3
1839,23797.26
1840,23885.39
1841,23893.22
1842,23901.89
1843,23972.2
1844,24034.72
1845,24009.46
1846,23934.57
1847,23891.59
1848,23910.72
1849,23985.35
1850,24073.29
1851,24091.9
1852,24007.35
1853,23887.43
1854,23801.53
1855,23782.32
1856,23841.01
1857,23904.56
1858,23880.16
1859,23825.2
1860,23887.72
1861,24029.17
1862,24012.19
1863,23776.42
1864,23588.18
1865,23631.02
1866,23747.87
1867,23760.97
1868,23704.12
1869,23669.24
1870,23671.71
1871,23686.89
1872,23693.34
1873,23673.4
1874,23645.04
1875,23673.38
1876,23776.04
1877,23862.02
1878,23858.33
1879,23804.72
1880,23757.95
1881,23729.42
1882,23714.47
1883,23711.55
1884,23719.92
1885,23721
1886,23681.5
1887,23622.31
1888,23638.67
1889,23755.76
1890,23839.53
1891,23794.37
1892,23720.48
1893,23727.15
1894,23754.62
1895,23704.29
1896,23627.11
1897,23641.34
1898,23724.11
1899,23746.74
1900,23684.6
1901,23634.14
1902,23630.81
1903,23596.11
1904,23492.54
1905,23414.12
1906,23434.4
1907,23468.87
1908,23424
1909,23377.96
1910,23452.43
1911,23590.36
1912,23646.64
1913,23606.63
1914,23556.35
1915,23536.84
1916,23535.92
1917,23518.1
1918,23415.97
1919,23240.67
1920,23185.98
1921,23363.27
1922,23533.81
1923,23467.51
1924,23316.03
1925,23305.96
1926,23394.89
1927,23436.27
1928,23390.9
1929,23285.57
1930,23177.75
1931,23146.39
1932,23187.14
1933,23203.32
1934,23168.88
1935,23171.44
1936,23249.15
1937,23318.92
1938,23312.96
1939,23249.21
1940,23159.67
1941,23072.72
1942,23014.03
1943,22998.57
1944,23035.67
1945,23118.32
1946,23224.04
1947,23245.53
1948,23042.15
1949,22743.86
1950,22680.09
1951,22870.4
1952,23018.61
1953,22996.82
1954,22915.15
1955,22845.74
1956,22769.95
1957,22684.26
1958,22636.55
1959,22651.22
1960,22668.3
1961,22643.81
1962,22644.98
1963,22727.29
1964,22772.39
1965,22649.79
1966,22464.78
1967,22388.37
1968,22412.69
1969,22452.88
1970,22500.63
1971,22586.88
1972,22662.31
1973,22626.55
1974,22513.5
1975,22471.91
1976,22536.87
1977,22618.18
1978,22625.23
1979,22476.82
1980,22209.06
1981,22036.82
1982,22068.14
1983,22185.26
1984,22266.86
1985,22238.17
1986,22085.47
1987,21940.03
1988,21915.07
1989,21991.94
1990,22116.52
1991,22199.16
1992,22165.22
1993,22044.77
1994,21903.68
1995,21842.89
1996,21936.7
1997,22025.15
1998,21905.75
1999,21709.56
2000,21679.51
2001,21772.23
2002,21814.66
2003,21766.37
2004,21666.46
2005,21599
2006,21662.47
2007,21772.56
2008,21728.67
2009,21549.58
2010,21422.47
2011,21407.46
2012,21448.16
2013,21453.35
2014,21309.84
2015,21094.83
2016,21076.25
2017,21264.71
2018,21374.84
2019,21303.02
2020,21185.56
2021,21095.66
2022,21005.42
2023,20925.37
2024,20927.79
2025,21000.34
2026,20999.71
2027,20888.23
2028,20810.17
2029,20828.65
2030,20846.94
2031,20825.02
2032,20846.09
2033,20909.17
2034,20841.51
2035,20617.32
2036,20516.08
2037,20662.96
2038,20824.35
2039,20811.1
2040,20601.86
2041,20293.4
2042,20177.22
2043,20349.65
2044,20468.52
2045,20333.14
2046,20135.75
2047,20027.29
2048,19978.93
2049,19968.02
2050,20027.23
2051,20126.08
2052,20096.64
2053,19908.29
2054,19828.72
2055,19957.43
2056,20008.22
2057,19839.02
2058,19655.07
2059,19591.19
2060,19588.23
2061,19595.03
2062,19609.05
2063,19630.37
2064,19655.07
2065,19648.61
2066,19530.94
2067,19317.1
2068,19166.18
2069,19111.64
2070,18999.69
2071,18837.74
2072,18853.9
2073,19013.59
2074,18957.7
2075,18693.7
2076,18648.19
2077,18859.41
2078,18951.53
2079,18810.06
2080,18586.9
2081,18422.01
2082,18423.2
2083,18502.95
2084,18443.03
2085,18320.76
2086,18393.12
2087,18546.42
2088,18467.64
2089,18219.8
2090,18055.88
2091,18025.61
2092,18065.91
2093,18038.76
2094,17823.04
2095,17600.01
2096,17593.84
2097,17652.98
2098,17565.06
2099,17391.55
2100,17255.92
2101,17228.76
2102,17319.89
2103,17386.27
2104,17321.55
2105,17197.02
2106,17099.82
2107,17086.61
2108,17139.37
2109,17110.55
2110,16963.49
2111,16853.81
2112,16842.32
2113,16845.34
2114,16791.68
2115,16639.05
2116,16438.59
2117,16316.23
2118,16290.39
2119,16297.28
2120,16262.76
2121,16126.53
2122,15982.16
2123,15961.4
2124,15968.1
2125,15867.14
2126,15763.43
2127,15773.89
2128,15785.87
2129,15694.55
2130,15575.75
2131,15512.15
2132,15526.85
2133,15567.74
2134,15468.78
2135,15238.6
2136,15132.42
2137,15160.98
2138,15067.97
2139,14835.32
2140,14642.94
2141,14542.59
2142,14507.23
2143,14567.65
2144,14736.71
2145,14754.14
2146,14406.46
2147,14103.86
2148,14182.73
2149,14235.36
2150,13982.18
2151,13757.44
2152,13762.45
2153,13836.35
2154,13833.5
2155,13678.68
2156,13474.37
2157,13457.8
2158,13572.48
2159,13582.58
2160,13428.8
2161,13158.94
2162,12929.54
2163,12874.06
2164,12894.91
2165,12869.67
2166,12756.85
2167,12576.82
2168,12437.92
2169,12379.28
2170,12338.67
2171,12287.44
2172,12234.7
2173,12193.07
2174,12165.09
2175,12068.28
2176,11830.54
2177,11616.25
2178,11574.28
2179,11574.48
2180,11511.35
2181,11449.12
2182,11393.12
2183,11239.46
2184,11042.89
2185,11002.84
2186,11073.52
2187,11066.07
2188,10976.41
2189,10871.86
2190,10764.64
2191,10656.36
2192,10563.58
2193,10492.22
2194,10423.29
2195,10335.59
2196,10211.3
2197,10075.26
2198,9983.787
2199,9966.777
2200,10017.71
2201,10013.21
2202,9848.276
2203,9601.847
2204,9408.651
2205,9433.637
2206,9589.051
2207,9490.919
2208,9206.513
2209,9125.375
2210,9140.01
2211,8985.399
2212,8887.177
2213,9024.669
2214,9009.271
2215,8677.035
2216,8424.24
2217,8369.322
2218,8284.306
2219,8122.937
2220,7976.3
2221,7964.173
2222,8124.125
2223,8153.611
2224,7883.551
2225,7591.587
2226,7451.427
2227,7429.825
2228,7452.915
2229,7441.256
2230,7429.809
2231,7462.683
2232,7412.82
2233,7205.128
2234,6977.834
2235,6821.521
2236,6727.99
2237,6712.553
2238,6790.215
2239,6807.436
2240,6631.633
2241,6493.123
2242,6555.445
2243,6662.338
2244,6642.052
2245,6378.352
2246,6082.965
2247,6083.075
2248,6081.661
2249,5764.063
2250,5485.129
2251,5476.74
2252,5549.989
2253,5599.686
2254,5631.572
2255,5605.267
2256,5479.808
2257,5324.426
2258,5200.034
2259,5083.299
2260,4963.57
2261,4859.828
2262,4801.917
2263,4806.011
2264,4781.139
2265,4644.604
2266,4437.368
2267,4317.103
2268,4539.708
2269,4832.738
2270,4649.67
2271,4263.445
2272,4099.222
2273,4068.093
2274,4073.645
2275,4147.64
2276,4192.791
2277,4044.721
2278,3833.384
2279,3716.813
2280,3570.624
2281,3380.451
2282,3360.904
2283,3413.893
2284,3257.19
2285,3076.551
2286,3073.126
2287,2974.265
2288,2769.675
2289,2885.682
2290,3146.468
2291,3069.505
2292,2916.243
2293,2966.906
2294,2939.217
2295,2729.097
2296,2533.343
2297,2468.159
2298,2539.633
2299,2529.076
2300,2351.289
