400,90202.07
401,90089.16
402,90191.4
403,90448.62
404,90793.05
405,91147.76
406,91391.77
407,91391.89
408,91026.83
409,90345.71
410,89528.72
411,88757.97
412,88151.38
413,87703.26
414,87393.88
415,87211.11
416,87183.26
417,87351.95
418,87752.13
419,88305.25
420,88836.73
421,89170.05
422,89185.04
423,88878.82
424,88263.3
425,87392.87
426,86564.19
427,86158.23
428,86524.66
429,87464.41
430,88295.87
431,88326.78
432,87289.97
433,85822.66
434,84675.33
435,84452.77
436,84952.48
437,85689.79
438,86200.15
439,86340.57
440,86243.81
441,86050.66
442,85853.05
443,85644.19
444,85405.34
445,85130.94
446,84883.83
447,84748.88
448,84802.42
449,84993.17
450,85169.7
451,85179.63
452,84978.77
453,84718.98
454,84572.18
455,84648.59
456,84781.85
457,84728.3
458,84274.45
459,83570.45
460,83012.84
461,82994.96
462,83562.34
463,84228.88
464,84465.84
465,83942.81
466,83047.38
467,82328.95
468,82268.6
469,82726
470,83220.24
471,83280.2
472,82803.55
473,82136.38
474,81650
475,81580.82
476,81795.4
477,82097.54
478,82307.68
479,82352.34
480,82202.22
481,81832.7
482,81306.34
483,80765.28
484,80353.23
485,80115.42
486,79902.32
487,79542.09
488,78936.17
489,78321.36
490,78030.02
491,78352.09
492,79099.37
493,79775.45
494,79889.66
495,79321.75
496,78455.23
497,77707.86
498,77362.84
499,77306.9
500,77353.9
501,77339.94
502,77249.01
503,77127.74
504,77024.53
505,77021.81
506,77232.31
507,77767.55
508,78569.88
509,79269.9
510,79466.48
511,78898.91
512,77868.34
513,76816.17
514,76144.85
515,75909.55
516,75975.51
517,76207.85
518,76504.7
519,76800.6
520,77032.47
521,77162.08
522,77207.02
523,77192.45
524,77131.05
525,76974.87
526,76657.73
527,76126.61
528,75474.84
529,74887.94
530,74546.96
531,74457.13
532,74405.55
533,74167.24
534,73677.62
535,73269.57
536,73335.05
537,74121.24
538,75121.67
539,75585.42
540,74848.97
541,73253.52
542,71798.94
543,71468.74
544,72411.4
545,73726.51
546,74452.62
547,74069.84
548,73134.61
549,72362.57
550,72303
551,72681.68
552,72967.49
553,72694.2
554,72081.74
555,71771.89
556,72385.37
557,73812.83
558,75104.8
559,75273.15
560,73933.6
561,72008.06
562,70585.08
563,70454.29
564,71138.24
565,71821.96
566,71783.81
567,71094.77
568,70237.91
569,69682.09
570,69567.53
571,69720.67
572,69957.3
573,70177.41
574,70426.77
575,70765.47
576,71205.68
577,71603.2
578,71782.45
579,71608.16
580,71198.14
581,70769.41
582,70523.39
583,70461.54
584,70441.98
585,70323.87
586,70092.8
587,69894.32
588,69882.9
589,70077.39
590,70190.37
591,69893.75
592,68994.82
593,67867.07
594,67031.24
595,66934.32
596,67445.96
597,68157.75
598,68675.99
599,68858.67
600,68775.59
601,68502.9
602,68122.77
603,67726.09
604,67403.95
605,67203.06
606,67059.19
607,66891.23
608,66659.55
609,66512.55
610,66651.49
611,67231.41
612,68022.32
613,68601.45
614,68570.3
615,67945.07
616,67093.9
617,66390.35
618,66027.91
619,65946.62
620,66067.53
621,66305.84
622,66562.02
623,66734.81
624,66729.45
625,66476.35
626,65912.76
627,65019.28
628,64095.79
629,63583.87
630,63880.48
631,64773.38
632,65601.7
633,65714.9
634,65031.48
635,64145.8
636,63685.91
637,63947.06
638,64585.95
639,65188.49
640,65455.17
641,65449.18
642,65305.62
643,65137.67
644,64942.05
645,64676.29
646,64311.67
647,63948.24
648,63756.58
649,63894.75
650,64296.34
651,64700.39
652,64845.35
653,64662.55
654,64343.34
655,64096.02
656,64038.23
657,64096.43
658,64173.05
659,64177.35
660,64040.84
661,63699.99
662,63128.61
663,62507
664,62086.15
665,62080.66
666,62376.54
667,62681.89
668,62721.38
669,62503.93
670,62273.34
671,62272.46
672,62504.47
673,62674.74
674,62473.7
675,61828.67
676,61110.64
677,60737.46
678,60945.1
679,61448.99
680,61872.88
681,61912.43
682,61580.13
683,60977.22
684,60217.15
685,59502.92
686,59075.45
687,59147.5
688,59617.47
689,60182.73
690,60548.59
691,60619.91
692,60487.79
693,60249.55
694,59981.87
695,59733.63
696,59551.2
697,59440.46
698,59328.07
699,59131.82
700,58826.45
701,58550.64
702,58471.89
703,58697.22
704,59075.3
705,59385.77
706,59444.47
707,59294.65
708,59069.69
709,58893.17
710,58795.42
711,58753.56
712,58740.85
713,58676.96
714,58438.75
715,57910.13
716,57193.44
717,56634.39
718,56584.71
719,57091.98
720,57734.27
721,58052.71
722,57833.5
723,57389.28
724,57099.58
725,57202.39
726,57508.67
727,57749.45
728,57711.16
729,57415.48
730,56947.39
731,56399.58
732,55914.67
733,55653.71
734,55747.92
735,56070.01
736,56358.39
737,56371.25
738,56127.31
739,55828.33
740,55668.72
741,55630.5
742,55496.67
743,55050.81
744,54334.34
745,53708.71
746,53549.87
747,53965
748,54620.42
749,55143.77
750,55312.66
751,55230.05
752,55041.3
753,54842.94
754,54590.3
755,54213.37
756,53691.55
757,53197.45
758,52950.17
759,53105.71
760,53492.63
761,53833.17
762,53894.02
763,53748.11
764,53599.73
765,53629.98
766,53800.66
767,53951.7
768,53932.74
769,53730.92
770,53431.04
771,53118.89
772,52867.1
773,52736.38
774,52782.87
775,52949.36
776,53050.82
777,52899.77
778,52476.55
779,51998.36
780,51697.77
781,51673.57
782,51788.89
783,51883.75
784,51860.52
785,51758.77
786,51636.16
787,51534.5
788,51451.91
789,51379.03
790,51300.7
791,51181.46
792,50981.54
793,50684.52
794,50375.58
795,50167.28
796,50143.97
797,50238.7
798,50333.4
799,50327.21
800,50233.09
801,50111.48
802,50015.68
803,49939.47
804,49846.53
805,49703.03
806,49503.04
807,49257.58
808,48980.55
809,48723.38
810,48564.51
811,48575.39
812,48697.97
813,48763.28
814,48607.27
815,48247.15
816,47882.66
817,47716.28
818,47809.78
819,48059.16
820,48351.61
821,48583.5
822,48663.65
823,48504.03
824,48133.89
825,47769.59
826,47641.75
827,47818.03
828,48065.39
829,48120.08
830,47853.66
831,47425.91
832,47032.86
833,46801.6
834,46690.52
835,46632.69
836,46575.32
837,46505.23
838,46416.27
839,46308.14
840,46199.57
841,46113.07
842,46063.34
843,46036.09
844,46010.38
845,45962.38
846,45855.73
847,45650.86
848,45335.82
849,45030.7
850,44894.64
851,45042.52
852,45352.39
853,45623.12
854,45683.51
855,45539.69
856,45264.2
857,44930.52
858,44619.21
859,44413.58
860,44380.77
861,44467.69
862,44566.48
863,44579.59
864,44495.04
865,44343.55
866,44156.89
867,43974.94
868,43841.86
869,43795.11
870,43804.15
871,43798.74
872,43717.74
873,43605.7
874,43573.57
875,43717.42
876,43940.86
877,44018.27
878,43744.49
879,43210.75
880,42720.13
881,42559.05
882,42719.84
883,42972.36
884,43093.72
885,43048.86
886,42952.37
887,42914.82
888,42915.66
889,42824.93
890,42520.25
891,42068.96
892,41703.37
893,41648.03
894,41887.63
895,42190.41
896,42326.29
897,42240.91
898,42043.8
899,41847.63
900,41706.34
901,41617.63
902,41575.31
903,41537
904,41424.9
905,41165.45
906,40812.88
907,40549.09
908,40552.34
909,40797.41
910,41052.62
911,41085.29
912,40839.04
913,40438.19
914,40013.89
915,39676.17
916,39513.21
917,39606.19
918,39895.7
919,40177.62
920,40249.35
921,40090.25
922,39866.51
923,39746.91
924,39773.61
925,39859.8
926,39915.25
927,39896.97
928,39809.57
929,39660.47
930,39472.96
931,39286.16
932,39138.31
933,39037.91
934,38964.77
935,38898.16
936,38830.91
937,38768.6
938,38716.97
939,38675.7
940,38638.9
941,38601.11
942,38568.48
943,38557.44
944,38583.43
945,38639.43
946,38699.34
947,38737.09
948,38735.3
949,38683.72
950,38574.31
951,38429.85
952,38296.94
953,38219.09
954,38189.93
955,38166.32
956,38107.15
957,38006.45
958,37882.64
959,37754.37
960,37637.45
961,37545.86
962,37490.83
963,37454.91
964,37403.15
965,37306.89
966,37201.37
967,37158.19
968,37235.72
969,37371.75
970,37440.53
971,37338.49
972,37144.45
973,37025.77
974,37116.98
975,37310.05
976,37389.07
977,37176.78
978,36751.53
979,36295.34
980,35970.18
981,35820.05
982,35845.46
983,36031.11
984,36277.83
985,36458.92
986,36476.8
987,36370.91
988,36221.23
989,36094.7
990,36004.06
991,35947.75
992,35921.04
993,35907.34
994,35887.36
995,35846.33
996,35784.14
997,35703.76
998,35606.18
999,35486.98
1000,35340.76
1001,35172.03
1002,35010.41
1003,34889.32
1004,34829.68
1005,34824.82
1006,34864.39
1007,34933.5
1008,34996.12
1009,35010.22
1010,34950.28
1011,34856.59
1012,34785.84
1013,34774.43
1014,34788.92
1015,34780.83
1016,34719.86
1017,34629.46
1018,34542.91
1019,34482.76
1020,34444.2
1021,34418.17
1022,34393.93
1023,34357.1
1024,34293.02
1025,34203.79
1026,34122.56
1027,34085.2
1028,34098.42
1029,34123.26
1030,34117.51
1031,34064.18
1032,33979.63
1033,33881.98
1034,33776.69
1035,33655
1036,33508.81
1037,33357.45
1038,33245.77
1039,33215.99
1040,33257.66
1041,33319.74
1042,33353.98
1043,33354.4
1044,33341.9
1045,33335.39
1046,33332.73
1047,33320.93
1048,33289.43
1049,33244.9
1050,33201.16
1051,33169.25
1052,33145.65
1053,33122.02
1054,33093.28
1055,33067.69
1056,33056.92
1057,33064.6
1058,33068.71
1059,33042.23
1060,32971.82
1061,32878.14
1062,32786.86
1063,32716.64
1064,32672.76
1065,32658.58
1066,32655.21
1067,32610.58
1068,32472.46
1069,32265.25
1070,32102.42
1071,32095.91
1072,32236.09
1073,32403.82
1074,32483.7
1075,32455.52
1076,32364.9
1077,32257.5
1078,32167.82
1079,32124.48
1080,32151.24
1081,32241.63
1082,32377.38
1083,32532.9
1084,32649.09
1085,32657.38
1086,32527.19
1087,32353.1
1088,32255.03
1089,32298.43
1090,32419.31
1091,32535.29
1092,32587.34
1093,32556.88
1094,32430.4
1095,32232.5
1096,32036.1
1097,31913.72
1098,31869.97
1099,31846.37
1100,31786.17
1101,31682.46
1102,31561.82
1103,31450.21
1104,31363.95
1105,31314.73
1106,31307.86
1107,31314.57
1108,31294.74
1109,31226
1110,31150.61
1111,31125.36
1112,31172.69
1113,31229.93
1114,31222.23
1115,31129.27
1116,31023.88
1117,30985.94
1118,31031.53
1119,31100.97
1120,31132.72
1121,31107.45
1122,31040.81
1123,30949
1124,30843.95
1125,30735.12
1126,30632.64
1127,30551.04
1128,30506.48
1129,30503.41
1130,30499.94
1131,30442.79
1132,30305.9
1133,30132.59
1134,29976.83
1135,29874.47
1136,29830.96
1137,29848.05
1138,29903.81
1139,29949.91
1140,29939.67
1141,29869.6
1142,29768.33
1143,29665.59
1144,29593.96
1145,29587.34
1146,29661.42
1147,29742.13
1148,29727.97
1149,29567.19
1150,29358.09
1151,29226.49
1152,29230.66
1153,29301.17
1154,29355.83
1155,29357.15
1156,29321.63
1157,29268.57
1158,29210.9
1159,29156.69
1160,29112.51
1161,29073.87
1162,29030.91
1163,28978.59
1164,28934.69
1165,28923.67
1166,28954.52
1167,28993.31
1168,28999.18
1169,28965.84
1170,28945.01
1171,28991.2
1172,29090.18
1173,29156.39
1174,29109.73
1175,28970.58
1176,28823.5
1177,28740.69
1178,28711.74
1179,28694.8
1180,28658.19
1181,28605.73
1182,28548.98
1183,28496.28
1184,28449.64
1185,28410.32
1186,28381.41
1187,28368.1
1188,28374.54
1189,28389.1
1190,28388.97
1191,28354.4
1192,28288.13
1193,28202.16
1194,28109.23
1195,28024.59
1196,27964.04
1197,27935.85
1198,27933.03
1199,27946.49
1200,27960.51
1201,27951.55
1202,27898.72
1203,27820.04
1204,27759.75
1205,27753.86
1206,27784.83
1207,27814.89
1208,27815.21
1209,27785.71
1210,27732.25
1211,27671.13
1212,27636.87
1213,27663.89
1214,27743.45
1215,27824.45
1216,27859.07
1217,27847.57
1218,27816.43
1219,27788.25
1220,27766.44
1221,27748.9
1222,27735.64
1223,27731.89
1224,27743.32
1225,27763.56
1226,27770.75
1227,27743.82
1228,27685.71
1229,27616.24
1230,27553.95
1231,27507.69
1232,27482.66
1233,27480.75
1234,27493.95
1235,27512.37
1236,27524.14
1237,27514.38
1238,27469.53
1239,27402.32
1240,27346.89
1241,27331.55
1242,27339.61
1243,27335.33
1244,27297.6
1245,27253.72
1246,27240.59
1247,27267.53
1248,27298.59
1249,27295.63
1250,27256.72
1251,27210.86
1252,27184.48
1253,27178.68
1254,27183.59
1255,27191.6
1256,27202.72
1257,27218.42
1258,27236.04
1259,27246.28
1260,27239.8
1261,27216.02
1262,27181.51
1263,27143.81
1264,27115.63
1265,27111.72
1266,27137.44
1267,27170.55
1268,27184.25
1269,27171.64
1270,27153.71
1271,27151.39
1272,27157.47
1273,27145.25
1274,27094.68
1275,27023.09
1276,26959.96
1277,26927.78
1278,26932.64
1279,26977.76
1280,27052
1281,27128.25
1282,27179.26
1283,27184.36
1284,27126.41
1285,27006.4
1286,26894.33
1287,26875.99
1288,26973.11
1289,27098.26
1290,27157.86
1291,27132.57
1292,27062.93
1293,26988.89
1294,26936.93
1295,26928.52
1296,26970.46
1297,27032.84
1298,27080.53
1299,27093.02
1300,27066.5
1301,27000.98
1302,26922.81
1303,26872.02
1304,26870.94
1305,26878.62
1306,26840.93
1307,26750.54
1308,26671.29
1309,26667.84
1310,26737.44
1311,26830.87
1312,26904.34
1313,26944.33
1314,26946.28
1315,26916.85
1316,26884.29
1317,26878.03
1318,26902.28
1319,26939.75
1320,26973.65
1321,26994.49
1322,26995.47
1323,26980.03
1324,26975.5
1325,27011.17
1326,27081.29
1327,27145.02
1328,27167.07
1329,27162.79
1330,27169.23
1331,27208.16
1332,27260.28
1333,27300.06
1334,27319.91
1335,27332.17
1336,27348.13
1337,27362.49
1338,27362.16
1339,27343.11
1340,27327.63
1341,27341.82
1342,27382.41
1343,27411.72
1344,27395.79
1345,27346.71
1346,27298.98
1347,27276.47
1348,27271.49
1349,27270.78
1350,27266.58
1351,27257.53
1352,27243.97
1353,27236.38
1354,27250.12
1355,27289.4
1356,27327.47
1357,27333.26
1358,27306.31
1359,27279.65
1360,27283.21
1361,27312.38
1362,27347.52
1363,27373.77
1364,27388.41
1365,27391.06
1366,27391.97
1367,27411.74
1368,27466.56
1369,27542.88
1370,27616
1371,27666.84
1372,27688.17
1373,27675.67
1374,27647.31
1375,27639.45
1376,27677.81
1377,27733.67
1378,27762.16
1379,27747.29
1380,27722.38
1381,27722.43
1382,27744.42
1383,27760.5
1384,27752.82
1385,27742
1386,27756.56
1387,27789.77
1388,27788.86
1389,27708.09
1390,27585.25
1391,27498.86
1392,27494.16
1393,27528.35
1394,27546.23
1395,27532.57
1396,27510.16
1397,27498.38
1398,27490.14
1399,27469.41
1400,27426.14
1401,27361.04
1402,27277.58
1403,27198.65
1404,27159.87
1405,27182.47
1406,27237.08
1407,27283.79
1408,27298.6
1409,27276.39
1410,27218.75
1411,27165.5
1412,27172.3
1413,27259.1
1414,27370.06
1415,27443.55
1416,27475.1
1417,27502.72
1418,27552.64
1419,27601.26
1420,27613.85
1421,27593.76
1422,27592.48
1423,27653.23
1424,27737.34
1425,27770.77
1426,27720.59
1427,27642.06
1428,27598.08
1429,27598.5
1430,27614.58
1431,27621.04
1432,27608.29
1433,27571.01
1434,27522.85
1435,27499.63
1436,27530.61
1437,27595.88
1438,27656.75
1439,27682.8
1440,27659.03
1441,27577.01
1442,27481.98
1443,27451.79
1444,27524.11
1445,27618.62
1446,27638.33
1447,27581.78
1448,27535.4
1449,27565.25
1450,27628.5
1451,27652.55
1452,27619.67
1453,27586.59
1454,27605.38
1455,27656.53
1456,27689.81
1457,27684.76
1458,27679.86
1459,27716.47
1460,27789.71
1461,27865.93
1462,27920.67
1463,27956.97
1464,27982.24
1465,27995.21
1466,27987.1
1467,27956.84
1468,27935.54
1469,27961.25
1470,28029.3
1471,28085.01
1472,28083.31
1473,28050.91
1474,28039.28
1475,28063.62
1476,28082.84
1477,28059.01
1478,28018.23
1479,28016.5
1480,28075.76
1481,28148.64
1482,28184.38
1483,28186.78
1484,28192.69
1485,28220.17
1486,28237.3
1487,28207.21
1488,28138.86
1489,28075.85
1490,28052.32
1491,28068.39
1492,28115.99
1493,28161.57
1494,28148.2
1495,28047.14
1496,27946.56
1497,27959.98
1498,28086.37
1499,28200.02
1500,28198.89
1501,28126.66
1502,28069.53
1503,28064.69
1504,28087.63
1505,28113.5
1506,28138.36
1507,28165.35
1508,28188.78
1509,28190.39
1510,28158.92
1511,28134.38
1512,28176.19
1513,28288.27
1514,28387.17
1515,28396.45
1516,28346.43
1517,28313.11
1518,28329.05
1519,28352.69
1520,28343.07
1521,28320.43
1522,28333.08
1523,28400.84
1524,28492.27
1525,28571.93
1526,28615.95
1527,28606.25
1528,28550.58
1529,28504.18
1530,28519.92
1531,28588.17
1532,28668.81
1533,28733.32
1534,28775.17
1535,28792.25
1536,28799.34
1537,28819.23
1538,28853.23
1539,28863.86
1540,28816.53
1541,28731.3
1542,28653.71
1543,28616.13
1544,28627.98
1545,28691.98
1546,28778.8
1547,28845.27
1548,28871.97
1549,28877.65
1550,28882.39
1551,28891.86
1552,28905.82
1553,28916.51
1554,28905.32
1555,28860.42
1556,28814.79
1557,28816.37
1558,28867.12
1559,28909.38
1560,28899.17
1561,28881.33
1562,28925.92
1563,29031.85
1564,29117.86
1565,29125.02
1566,29106.55
1567,29141.68
1568,29236.06
1569,29325.02
1570,29362.3
1571,29374.81
1572,29403.31
1573,29459.74
1574,29533.28
1575,29607.56
1576,29652.91
1577,29641.75
1578,29596.99
1579,29573.7
1580,29601.04
1581,29651.28
1582,29693.88
1583,29737.45
1584,29809.75
1585,29906.52
1586,29970.2
1587,29953.77
1588,29906.32
1589,29911.67
1590,29986.85
1591,30064.79
1592,30091.18
1593,30092.51
1594,30116.23
1595,30181.14
1596,30279.16
1597,30393.68
1598,30484.9
1599,30512.85
1600,30492.98
1601,30478.47
1602,30505.98
1603,30574.63
1604,30673.97
1605,30756.59
1606,30758.76
1607,30695.37
1608,30699.26
1609,30870.96
1610,31093.33
1611,31186.19
1612,31138.78
1613,31114.28
1614,31223.32
1615,31376.5
1616,31451.79
1617,31437.74
1618,31398.63
1619,31372.33
1620,31338.18
1621,31272.18
1622,31180.14
1623,31080.62
1624,30977.6
1625,30855.44
1626,30705.23
1627,30552.81
1628,30432.18
1629,30355.4
1630,30316.04
1631,30301.51
1632,30285.13
1633,30243.16
1634,30196.84
1635,30189.93
1636,30227.66
1637,30257.35
1638,30235.83
1639,30188.37
1640,30158.86
1641,30159.68
1642,30175.12
1643,30188.04
1644,30180.2
1645,30136.21
1646,30067.21
1647,29998.12
1648,29958.32
1649,29983.39
1650,30087.14
1651,30184.9
1652,30172.29
1653,30070.41
1654,30002.24
1655,30041.71
1656,30143.66
1657,30248.78
1658,30315.92
1659,30312.54
1660,30234.88
1661,30113.98
1662,29993.81
1663,29955.3
1664,30075.14
1665,30285.52
1666,30427.06
1667,30431.9
1668,30392.56
1669,30395.16
1670,30411.87
1671,30382.58
1672,30317.23
1673,30286.99
1674,30328.13
1675,30390.01
1676,30418.63
1677,30425.15
1678,30447.22
1679,30480.65
1680,30473.69
1681,30405.32
1682,30356.39
1683,30412.84
1684,30524.99
1685,30571.39
1686,30519.13
1687,30459.86
1688,30465.92
1689,30500.59
1690,30506.84
1691,30493.13
1692,30509.75
1693,30566.25
1694,30604.55
1695,30580.73
1696,30541.71
1697,30554.42
1698,30612.75
1699,30657.47
1700,30649.21
1701,30586.91
1702,30484.35
1703,30407.36
1704,30431.49
1705,30534.69
1706,30619
1707,30628.36
1708,30590.66
1709,30545.54
1710,30544.01
1711,30634.56
1712,30768.72
1713,30821.82
1714,30752.22
1715,30679.98
1716,30711.38
1717,30793.84
1718,30831.89
1719,30821.61
1720,30828.37
1721,30872.02
1722,30887.69
1723,30826.45
1724,30752.19
1725,30753.52
1726,30822.15
1727,30882.89
1728,30894.83
1729,30874.28
1730,30842.3
1731,30818.13
1732,30818.64
1733,30840.12
1734,30866.42
1735,30882.14
1736,30873.17
1737,30837.57
1738,30812.07
1739,30833.71
1740,30876.68
1741,30886.46
1742,30868.16
1743,30892.83
1744,30986.88
1745,31057.02
1746,31015.71
1747,30924.02
1748,30893.04
1749,30927.03
1750,30940.38
1751,30913.91
1752,30956.66
1753,31136.78
1754,31285.84
1755,31198.57
1756,30968.4
1757,30867.97
1758,30972.41
1759,31093.43
1760,31093.31
1761,31034.1
1762,31002.47
1763,31006.46
1764,31021.68
1765,31031.45
1766,31026.18
1767,31007.89
1768,30999.87
1769,31021.9
1770,31068.93
1771,31126.6
1772,31152.96
1773,31092.49
1774,30965.94
1775,30884.49
1776,30914.6
1777,30998.9
1778,31071.63
1779,31124.85
1780,31168.87
1781,31195.45
1782,31183.66
1783,31140.81
1784,31114.97
1785,31130.53
1786,31132.38
1787,31068.16
1788,30998.7
1789,31022.46
1790,31114.78
1791,31153.15
1792,31096.94
1793,31039.05
1794,31053.55
1795,31115.56
1796,31183.66
1797,31239.53
1798,31274.34
1799,31277.62
1800,31238.13
1801,31185.62
1802,31214.68
1803,31370.54
1804,31524.8
1805,31538.92
1806,31433.54
1807,31292.04
1808,31177.4
1809,31135.96
1810,31172.96
1811,31234.76
1812,31274.8
1813,31279.44
1814,31245.78
1815,31199.41
1816,31174.57
1817,31189.15
1818,31249.29
1819,31331.46
1820,31376.53
1821,31353.96
1822,31301.97
1823,31263.68
1824,31262.43
1825,31309.91
1826,31362.1
1827,31349.71
1828,31270.92
1829,31186.48
1830,31154.13
1831,31222.46
1832,31384.88
1833,31470.9
1834,31328.85
1835,31095.05
1836,30990.28
1837,31019.74
1838,31053.06
1839,31048.8
1840,31067.18
1841,31135.9
1842,31208.94
1843,31246.71
1844,31262.58
1845,31272.85
1846,31237.99
1847,31106.42
1848,30961.2
1849,30973.23
1850,31130.54
1851,31205.75
1852,31107.66
1853,31040.36
1854,31158
1855,31319.09
1856,31349.73
1857,31276.27
1858,31196.18
1859,31138.42
1860,31088.65
1861,31065.98
1862,31125.11
1863,31244.08
1864,31263.97
1865,31107.9
1866,30980.45
1867,31067.53
1868,31198.8
1869,31129.52
1870,30955.9
1871,30938.46
1872,31076.86
1873,31152.7
1874,31095.82
1875,31043.33
1876,31076.38
1877,31125.25
1878,31122.34
1879,31075.77
1880,31011.23
1881,30959.61
1882,30950.4
1883,30978.65
1884,31019.86
1885,31054.64
1886,31068.54
1887,31050.84
1888,30995.95
1889,30921.5
1890,30893.22
1891,30948.48
1892,31009.86
1893,30996.72
1894,30939.16
1895,30897.06
1896,30869.72
1897,30827.56
1898,30773.13
1899,30733.41
1900,30720.69
1901,30729.81
1902,30757
1903,30802.49
1904,30853.43
1905,30863.19
1906,30801.01
1907,30717.88
1908,30678.63
1909,30712.91
1910,30828.75
1911,30952.66
1912,30974.42
1913,30896.71
1914,30808.64
1915,30750.53
1916,30705.86
1917,30649.47
1918,30547.5
1919,30410.14
1920,30348.21
1921,30439.16
1922,30606.52
1923,30747.74
1924,30786.5
1925,30677.64
1926,30540.26
1927,30542.7
1928,30634.93
1929,30645.76
1930,30553.34
1931,30457.67
1932,30409.39
1933,30399.84
1934,30403.88
1935,30376.59
1936,30320.5
1937,30339.05
1938,30470.53
1939,30534.74
1940,30387.29
1941,30173.7
1942,30075.14
1943,30083.33
1944,30131.94
1945,30194.04
1946,30253.23
1947,30217.59
1948,29966.33
1949,29634.03
1950,29542.92
1951,29710.28
1952,29843.12
1953,29824.43
1954,29784.75
1955,29806.8
1956,29864.57
1957,29913.84
1958,29893.54
1959,29765.06
1960,29559.13
1961,29343.14
1962,29273.04
1963,29453.87
1964,29656.51
1965,29622.8
1966,29513.71
1967,29595.94
1968,29732.29
1969,29632.34
1970,29391.66
1971,29310.28
1972,29380.16
1973,29379.36
1974,29278.32
1975,29217.04
1976,29234.91
1977,29258.75
1978,29245.52
1979,29198.23
1980,29140.52
1981,29122.62
1982,29149.13
1983,29136.47
1984,29051.62
1985,28994.22
1986,29022.54
1987,29038.94
1988,28957.63
1989,28810.74
1990,28655.17
1991,28553.48
1992,28554.47
1993,28639.29
1994,28763.88
1995,28850.97
1996,28827.1
1997,28709.52
1998,28548.23
1999,28381.09
2000,28238.36
2001,28130.74
2002,28061.88
2003,28061.79
2004,28164.61
2005,28280.91
2006,28256.28
2007,28121.48
2008,28032.91
2009,28037.94
2010,28094.45
2011,28139.33
2012,28097.27
2013,27979.15
2014,27876.18
2015,27815.44
2016,27754.82
2017,27681.43
2018,27619.52
2019,27610.28
2020,27709.67
2021,27839.66
2022,27751.07
2023,27448.42
2024,27302.74
2025,27406.75
2026,27402.18
2027,27176.31
2028,27057.53
2029,27167.6
2030,27224.64
2031,27115.36
2032,27081.77
2033,27197.35
2034,27170.96
2035,26901.32
2036,26709.72
2037,26751.68
2038,26777.92
2039,26640.33
2040,26478.3
2041,26416.36
2042,26482.27
2043,26619.31
2044,26624.91
2045,26431.45
2046,26279.01
2047,26287.23
2048,26257.3
2049,26089.7
2050,25961.34
2051,25957.44
2052,25915.92
2053,25773
2054,25712.77
2055,25785.74
2056,25734.42
2057,25485.24
2058,25367.78
2059,25503.22
2060,25562.96
2061,25401.47
2062,25267.61
2063,25277.28
2064,25264.59
2065,25157.48
2066,25070.81
2067,25056.04
2068,25047.11
2069,25003.42
2070,24932.55
2071,24820.96
2072,24626.28
2073,24419.14
2074,24402.2
2075,24560.57
2076,24632.85
2077,24541.03
2078,24408.08
2079,24290
2080,24171.1
2081,24052.78
2082,23955.44
2083,23926.36
2084,24020.67
2085,24124.52
2086,24026.84
2087,23776.96
2088,23574.71
2089,23461.02
2090,23389.35
2091,23342.93
2092,23313.92
2093,23249.05
2094,23093.46
2095,22904.01
2096,22766.14
2097,22692.6
2098,22670.95
2099,22681.73
2100,22700.22
2101,22689.63
2102,22629.12
2103,22557.46
2104,22492.4
2105,22365.15
2106,22157.63
2107,21995.47
2108,21936.2
2109,21875.51
2110,21779.35
2111,21747.6
2112,21769.63
2113,21682.6
2114,21496.53
2115,21409.3
2116,21430.4
2117,21401.21
2118,21289.18
2119,21156.78
2120,21043.52
2121,20969.41
2122,20918.23
2123,20859.12
2124,20778.93
2125,20670.92
2126,20526.5
2127,20360.66
2128,20279.14
2129,20331.52
2130,20341.59
2131,20177.18
2132,19899.22
2133,19621.39
2134,19500.08
2135,19545.17
2136,19563.25
2137,19468.85
2138,19308.82
2139,19143.48
2140,19035.8
2141,19011.28
2142,19056.69
2143,19040.5
2144,18824.45
2145,18568.22
2146,18467.14
2147,18405.62
2148,18261.44
2149,18148.6
2150,18129.11
2151,18045.58
2152,17843.91
2153,17689.43
2154,17639.68
2155,17596.08
2156,17517.19
2157,17424.26
2158,17358.43
2159,17356.34
2160,17321.65
2161,17131
2162,16869.75
2163,16672.45
2164,16585.71
2165,16593.35
2166,16568.96
2167,16393.58
2168,16002.7
2169,15610.53
2170,15752.58
2171,16256.32
2172,16337.18
2173,15979.52
2174,15638.97
2175,15428.44
2176,15304.83
2177,15234.98
2178,15186.22
2179,15117.71
2180,15017.95
2181,14940.04
2182,14863.48
2183,14658.84
2184,14403.06
2185,14354.99
2186,14410.91
2187,14276.27
2188,14074.71
2189,14013.97
2190,13826.9
2191,13358.11
2192,13167.36
2193,13474.61
2194,13635.66
2195,13399.66
2196,13103.22
2197,12893.89
2198,12740.99
2199,12646.37
2200,12617.46
2201,12586.37
2202,12501.98
2203,12446.93
2204,12454.4
2205,12407.39
2206,12263.09
2207,12095.6
2208,11984.98
2209,11987.01
2210,11960.57
2211,11736.04
2212,11494.76
2213,11422.27
2214,11403.76
2215,11316.58
2216,11124.33
2217,10934.87
2218,10968
2219,11022.96
2220,10718.02
2221,10347.46
2222,10335.18
2223,10577.26
2224,10786.83
2225,10559.8
2226,9950.073
2227,9576.807
2228,9550.955
2229,9600.296
2230,9700.809
2231,9862.985
2232,9769.459
2233,9315.976
2234,9055.618
2235,9187.659
2236,9341.322
2237,9285.537
2238,8973.332
2239,8700.442
2240,8748.659
2241,8778.568
2242,8535.652
2243,8247.812
2244,8046.955
2245,7894.482
2246,7920.75
2247,8266.406
2248,8410.375
2249,7959.388
2250,7679.248
2251,7895.826
2252,7849.309
2253,7408.195
2254,7086.145
2255,7032.067
2256,7153.26
2257,7186.05
2258,7013.078
2259,6934.396
2260,6978.476
2261,6818.387
2262,6557.714
2263,6504.142
2264,6468.696
2265,6243.033
2266,6026.013
2267,5946.917
2268,5939.287
2269,5911.367
2270,5790.542
2271,5675.514
2272,5675.993
2273,5732.376
2274,5722.143
2275,5496.262
2276,5229.322
2277,5267.908
2278,5375.163
2279,5252.458
2280,5144.251
2281,5127.415
2282,4895.201
2283,4590.483
2284,4626.906
2285,4760.512
2286,4685.966
2287,4653.874
2288,4698.385
2289,4461.667
2290,4202.044
2291,4439.799
2292,4670.423
2293,4420.592
2294,4129.651
2295,4037.731
2296,4001.444
2297,3995.42
2298,4019.488
2299,3840.685
2300,3443.349
