400,61288.23
401,61215.99
402,61168.78
403,61133.09
404,61094.1
405,61038.26
406,60957.93
407,60847.18
408,60701.71
409,60540.96
410,60402.63
411,60324.46
412,60315.05
413,60326.68
414,60305.43
415,60211.64
416,60080.31
417,59971.13
418,59940.21
419,59987.1
420,60063.29
421,60119.08
422,60121.92
423,60074.99
424,59985.92
425,59864.85
426,59736.32
427,59629.82
428,59573.16
429,59564.93
430,59578.07
431,59584.8
432,59561.82
433,59495.24
434,59372.43
435,59189.66
436,58993.35
437,58847.28
438,58810.76
439,58867.78
440,58937.75
441,58938.7
442,58830.33
443,58656.65
444,58471.72
445,58320.79
446,58204.13
447,58107.32
448,58016.66
449,57927.97
450,57844.61
451,57770.07
452,57705.34
453,57646.82
454,57590.44
455,57529.81
456,57447.89
457,57324.72
458,57143.31
459,56923.1
460,56708.18
461,56542.39
462,56441.41
463,56377.81
464,56320.72
465,56245.5
466,56150.16
467,56037.86
468,55911.84
469,55776.22
470,55635.65
471,55494.79
472,55360.23
473,55240.93
474,55145.92
475,55076.85
476,55015.05
477,54938.45
478,54828.86
479,54693.7
480,54550.92
481,54418.02
482,54303.82
483,54209.22
484,54134.79
485,54073.47
486,54003.13
487,53899.94
488,53750.07
489,53585.23
490,53450.15
491,53384.35
492,53368.89
493,53347.16
494,53263.16
495,53104.32
496,52917.07
497,52751.86
498,52640.94
499,52562.96
500,52486.75
501,52386.27
502,52270.2
503,52161.89
504,52083.43
505,52034.79
506,51996.17
507,51947.24
508,51872.34
509,51764.34
510,51617.03
511,51430.82
512,51232.79
513,51056.57
514,50931.98
515,50853.98
516,50798.56
517,50742.06
518,50673.57
519,50596.26
520,50513.98
521,50428.29
522,50335.54
523,50231.38
524,50113
525,49985.25
526,49855.25
527,49729.71
528,49611.02
529,49498.89
530,49392.77
531,49285.36
532,49160.95
533,49003.45
534,48812.67
535,48627.91
536,48494.3
537,48441.97
538,48422.91
539,48363.79
540,48199.82
541,47965.25
542,47759.11
543,47678.66
544,47731.45
545,47812.35
546,47809.74
547,47665.43
548,47451.53
549,47259.38
550,47160.41
551,47127.4
552,47102.34
553,47032.68
554,46922.98
555,46812.97
556,46741.43
557,46709.3
558,46674.01
559,46590.92
560,46442.54
561,46270.13
562,46122.38
563,46032.97
564,45971.63
565,45891.04
566,45750.89
567,45570.46
568,45400
569,45287.8
570,45240.15
571,45223.2
572,45201.87
573,45156.38
574,45093.48
575,45022.51
576,44947.59
577,44855.8
578,44730.81
579,44562.57
580,44380.91
581,44231.26
582,44154.7
583,44136
584,44119.57
585,44050.47
586,43919.02
587,43772.84
588,43662.84
589,43611.21
590,43575.36
591,43504.01
592,43361.56
593,43177.73
594,42999.32
595,42867.89
596,42784.46
597,42730.55
598,42687.61
599,42637
600,42560.06
601,42438.68
602,42277.71
603,42115.14
604,41991.26
605,41924.75
606,41879.99
607,41813.13
608,41693.79
609,41552.2
610,41435.77
611,41385.14
612,41385.64
613,41394.86
614,41372.32
615,41312.25
616,41238.3
617,41174.46
618,41121.78
619,41049.04
620,40922.81
621,40733.49
622,40528.09
623,40361.68
624,40272.54
625,40230.18
626,40186.42
627,40100.56
628,39985.82
629,39879.46
630,39815.82
631,39789.21
632,39764.41
633,39706.49
634,39606.2
635,39484.85
636,39365.32
637,39262.24
638,39174.39
639,39098.77
640,39030.88
641,38961.41
642,38880.19
643,38780.57
644,38675.24
645,38583.3
646,38521.18
647,38480.64
648,38439.87
649,38378.16
650,38295.41
651,38209.34
652,38137.82
653,38084.07
654,38031.57
655,37962.54
656,37868.29
657,37759.31
658,37648.48
659,37544.68
660,37443.14
661,37336.29
662,37220.11
663,37110.57
664,37030.5
665,36998.34
666,36992.58
667,36970.11
668,36890.68
669,36761.49
670,36628.96
671,36539.36
672,36499.14
673,36465.34
674,36392.4
675,36264.7
676,36122.68
677,36012.71
678,35961.97
679,35942.7
680,35917.46
681,35855.57
682,35756.18
683,35626.83
684,35476.76
685,35327.43
686,35205.54
687,35134.52
688,35101.65
689,35071.07
690,35008.16
691,34908.23
692,34794.46
693,34690.86
694,34612.77
695,34564
696,34547.4
697,34548.66
698,34519.77
699,34409.05
700,34200.04
701,33977.55
702,33844.27
703,33869.2
704,33977.79
705,34057.15
706,34013.26
707,33871.18
708,33703.13
709,33575.39
710,33497.46
711,33446.47
712,33399.75
713,33341.75
714,33262.72
715,33153.75
716,33025.14
717,32908.52
718,32836.09
719,32814.29
720,32809.91
721,32786.58
722,32722.57
723,32627.6
724,32515.44
725,32400.76
726,32301.02
727,32234.17
728,32208.13
729,32187.74
730,32126.32
731,31988.82
732,31810.04
733,31651.2
734,31565.96
735,31543.49
736,31539.31
737,31511.56
738,31453.47
739,31382.99
740,31317.69
741,31258.36
742,31190.08
743,31097.84
744,30982.65
745,30865.39
746,30767.93
747,30702.76
748,30666.96
749,30656.16
750,30659.88
751,30654.26
752,30613.81
753,30525.48
754,30412.22
755,30303.42
756,30221.04
757,30158.22
758,30101.14
759,30038.33
760,29970.56
761,29902.6
762,29838.86
763,29781.32
764,29730.97
765,29688.06
766,29646.17
767,29595.12
768,29525.4
769,29435.96
770,29331.81
771,29218.61
772,29113.85
773,29045.6
774,29040.75
775,29085.64
776,29120.85
777,29085.77
778,28968.06
779,28823.45
780,28712.14
781,28661.22
782,28639.32
783,28609.37
784,28549.96
785,28474.2
786,28399.75
787,28336.56
788,28273.38
789,28195.32
790,28094.05
791,27983.9
792,27884.04
793,27809.31
794,27755.96
795,27715.16
796,27679.33
797,27647.55
798,27621.14
799,27600.28
800,27577.1
801,27540.51
802,27480.85
803,27401.04
804,27310.31
805,27217.34
806,27124.56
807,27030.58
808,26934.88
809,26848.92
810,26792.88
811,26785
812,26806.92
813,26808.96
814,26743.04
815,26616.57
816,26492.88
817,26435.75
818,26454.13
819,26492.41
820,26492.23
821,26429.12
822,26324.96
823,26204.82
824,26088.66
825,25988.27
826,25914.55
827,25869.08
828,25836.16
829,25798.37
830,25745.8
831,25684.67
832,25623.25
833,25566.25
834,25509.78
835,25448.66
836,25381.97
837,25320.85
838,25278.5
839,25260.71
840,25249.23
841,25220.96
842,25160.13
843,25077.87
844,24991.48
845,24914.05
846,24840.82
847,24762.34
848,24673.67
849,24591.25
850,24537.89
851,24529.72
852,24546.99
853,24558.03
854,24536.32
855,24486.35
856,24424.19
857,24363.72
858,24304.28
859,24239.19
860,24163.94
861,24090.76
862,24039.48
863,24025.73
864,24030.56
865,24017.73
866,23955.56
867,23854.46
868,23747.73
869,23666.48
870,23619.12
871,23600.67
872,23605.32
873,23619.28
874,23623.77
875,23601.26
876,23549.58
877,23476.92
878,23391.66
879,23302.27
880,23217.32
881,23145.17
882,23091.17
883,23058.52
884,23049.6
885,23055.6
886,23058.78
887,23042.11
888,23003.2
889,22951.88
890,22898.32
891,22852.5
892,22824.26
893,22822.5
894,22838.61
895,22848.18
896,22827.39
897,22773.7
898,22704.46
899,22637.33
900,22581.65
901,22538.83
902,22509.66
903,22488.68
904,22464.32
905,22425.1
906,22366.91
907,22293.04
908,22207.35
909,22120.85
910,22051.74
911,22017.38
912,22008.84
913,21990.24
914,21926.2
915,21819.58
916,21712.74
917,21648.25
918,21634.24
919,21643.37
920,21647.3
921,21630.79
922,21592.08
923,21530.33
924,21452.47
925,21373.38
926,21307.8
927,21261.46
928,21230.95
929,21212.18
930,21194.83
931,21162.34
932,21098.92
933,21009.35
934,20918.33
935,20850.52
936,20814.48
937,20803.59
938,20810.31
939,20820.52
940,20814.05
941,20771.98
942,20701.13
943,20631.09
944,20590.39
945,20577.08
946,20563.35
947,20522.46
948,20457.76
949,20397.06
950,20366.89
951,20364.95
952,20366.57
953,20348.32
954,20311.28
955,20274.55
956,20255.68
957,20247.23
958,20224.44
959,20165.14
960,20081.19
961,20006.71
962,19972.92
963,19976.56
964,19993.3
965,20000.46
966,19993.71
967,19979.23
968,19962.11
969,19936.82
970,19892.2
971,19820.41
972,19740.62
973,19685.06
974,19679.95
975,19706.89
976,19727.63
977,19708.94
978,19650.42
979,19565.08
980,19466.86
981,19375.25
982,19311.79
983,19292.38
984,19303.11
985,19320.24
986,19323.45
987,19308.22
988,19274.79
989,19226.02
990,19175.84
991,19141.12
992,19132.38
993,19136.69
994,19135.65
995,19115.23
996,19075.56
997,19019.66
998,18953.09
999,18888.72
1000,18840.7
1001,18814.51
1002,18793.75
1003,18758.72
1004,18702.03
1005,18643.62
1006,18607.02
1007,18607.4
1008,18621.56
1009,18615.31
1010,18565.82
1011,18495.62
1012,18438.48
1013,18417.9
1014,18421.78
1015,18430.36
1016,18429.11
1017,18418.83
1018,18403.17
1019,18386.24
1020,18373.4
1021,18370.14
1022,18375.72
1023,18375.87
1024,18354.7
1025,18307.74
1026,18251.6
1027,18205.01
1028,18178.07
1029,18167.54
1030,18168.88
1031,18174.11
1032,18170.68
1033,18146.16
1034,18100.69
1035,18048.24
1036,18003.17
1037,17972.38
1038,17955.9
1039,17953.04
1040,17955.96
1041,17951.38
1042,17927.7
1043,17894.23
1044,17873.55
1045,17884.73
1046,17914.52
1047,17932.98
1048,17915.38
1049,17872.89
1050,17831.61
1051,17813.01
1052,17814.12
1053,17823.9
1054,17832.6
1055,17835.79
1056,17830.39
1057,17814.62
1058,17790.85
1059,17762.22
1060,17733.3
1061,17712.07
1062,17706.96
1063,17717.76
1064,17727.79
1065,17718.74
1066,17684.6
1067,17637.74
1068,17591.91
1069,17558.37
1070,17545.49
1071,17560.7
1072,17596.99
1073,17634.33
1074,17653.93
1075,17658.27
1076,17664.61
1077,17689.33
1078,17738.99
1079,17814.93
1080,17917.11
1081,18036.91
1082,18162.33
1083,18280.24
1084,18372.15
1085,18418.06
1086,18409.78
1087,18377.96
1088,18361.13
1089,18380.56
1090,18416.5
1091,18443.36
1092,18443.32
1093,18411.98
1094,18346.6
1095,18256.77
1096,18167.71
1097,18104.22
1098,18063.01
1099,18014.77
1100,17931.92
1101,17819.96
1102,17706.69
1103,17618.34
1104,17565.89
1105,17552.97
1106,17578.18
1107,17613.15
1108,17620.53
1109,17576.59
1110,17507.11
1111,17449.04
1112,17426.9
1113,17434.37
1114,17460.45
1115,17494.17
1116,17524.6
1117,17541.06
1118,17540.97
1119,17531.31
1120,17519.28
1121,17506.21
1122,17488.61
1123,17462.36
1124,17418.67
1125,17346.06
1126,17237.95
1127,17118.05
1128,17021.58
1129,16971.61
1130,16943.32
1131,16900.08
1132,16821.09
1133,16725.93
1134,16640.34
1135,16577.51
1136,16529.53
1137,16486.75
1138,16446.26
1139,16412.75
1140,16390.97
1141,16380.89
1142,16378.94
1143,16381.5
1144,16385.35
1145,16387.46
1146,16384.41
1147,16370.96
1148,16341.31
1149,16294.8
1150,16246.33
1151,16213.57
1152,16202.75
1153,16198.35
1154,16182.88
1155,16150.83
1156,16111.23
1157,16073.48
1158,16039.52
1159,16005.55
1160,15968.13
1161,15927.96
1162,15887.77
1163,15849.19
1164,15808.58
1165,15760.74
1166,15706.2
1167,15661.21
1168,15644.54
1169,15657.97
1170,15674.77
1171,15666.57
1172,15631.7
1173,15596.24
1174,15584.67
1175,15588.88
1176,15579.93
1177,15535.79
1178,15479.29
1179,15450.32
1180,15471.42
1181,15504.65
1182,15499.2
1183,15435.59
1184,15357.14
1185,15313.46
1186,15315.87
1187,15330.12
1188,15321.8
1189,15290.15
1190,15258.39
1191,15246.4
1192,15248.24
1193,15247.28
1194,15232.02
1195,15209.76
1196,15192.06
1197,15185.17
1198,15184.59
1199,15184.52
1200,15180.25
1201,15168.3
1202,15146.11
1203,15121.49
1204,15109.3
1205,15119.86
1206,15135.16
1207,15126.46
1208,15080.35
1209,15032.8
1210,15029.25
1211,15079.71
1212,15132.38
1213,15131.75
1214,15078.32
1215,15027.57
1216,15030.57
1217,15075.45
1218,15115.91
1219,15115.69
1220,15086.94
1221,15055.79
1222,15042.03
1223,15050.32
1224,15082.79
1225,15129.29
1226,15163.84
1227,15161.98
1228,15132.74
1229,15108.69
1230,15116.15
1231,15140.86
1232,15153.51
1233,15138.44
1234,15120.53
1235,15131.6
1236,15174.21
1237,15206.21
1238,15184.71
1239,15117.21
1240,15052.25
1241,15031.9
1242,15044.76
1243,15056.81
1244,15044.86
1245,15021.62
1246,15007.05
1247,15009.51
1248,15018.29
1249,15021.58
1250,15018.68
1251,15018.39
1252,15027.92
1253,15040.68
1254,15044.12
1255,15031.63
1256,15016.03
1257,15013.99
1258,15030.9
1259,15054.08
1260,15069.61
1261,15069.41
1262,15050.12
1263,15011.71
1264,14974.7
1265,14967.79
1266,15005.57
1267,15061.26
1268,15100.91
1269,15108.37
1270,15092.36
1271,15063.22
1272,15027.6
1273,14989.64
1274,14953.69
1275,14925.69
1276,14912.07
1277,14914.51
1278,14923.63
1279,14928.81
1280,14929.61
1281,14936.95
1282,14960.05
1283,14986.7
1284,14993.25
1285,14965.87
1286,14928.66
1287,14914.6
1288,14937.12
1289,14976.35
1290,15009.84
1291,15026.33
1292,15023.58
1293,15001.77
1294,14973.78
1295,14957.2
1296,14962.18
1297,14980.24
1298,15000
1299,15009.77
1300,14997.54
1301,14954.7
1302,14903.13
1303,14880.64
1304,14910.13
1305,14961.11
1306,14991.75
1307,14986.83
1308,14971.65
1309,14973.24
1310,14997.47
1311,15035.57
1312,15078.59
1313,15118.29
1314,15146.64
1315,15160.29
1316,15165.04
1317,15167.46
1318,15169.63
1319,15169.71
1320,15166.69
1321,15164.88
1322,15170.57
1323,15186.74
1324,15208.57
1325,15230.33
1326,15251.52
1327,15276.8
1328,15309.59
1329,15342.63
1330,15364.1
1331,15370.59
1332,15381.25
1333,15417.99
1334,15475.87
1335,15519.94
1336,15519.34
1337,15487.5
1338,15458.71
1339,15454.62
1340,15459.91
1341,15453.15
1342,15428.77
1343,15399.78
1344,15379.3
1345,15372.83
1346,15382.16
1347,15403.78
1348,15418.78
1349,15406.24
1350,15370.1
1351,15343.19
1352,15354.09
1353,15384.49
1354,15393.94
1355,15361.35
1356,15320.14
1357,15311.87
1358,15342.12
1359,15377.14
1360,15387.12
1361,15385.32
1362,15403.6
1363,15454.45
1364,15501.6
1365,15503.66
1366,15473.22
1367,15475.41
1368,15561.72
1369,15687.21
1370,15770.94
1371,15773.85
1372,15745.92
1373,15745.34
1374,15776.74
1375,15800.77
1376,15789.14
1377,15773.71
1378,15804.1
1379,15887.32
1380,15957.68
1381,15948.67
1382,15869.71
1383,15779.79
1384,15726.88
1385,15715.08
1386,15738.01
1387,15773.31
1388,15777.81
1389,15714.83
1390,15613.08
1391,15533.13
1392,15510.65
1393,15515.39
1394,15507.81
1395,15478.82
1396,15448.21
1397,15433.02
1398,15429.15
1399,15425.37
1400,15416.76
1401,15409.75
1402,15411.02
1403,15416.5
1404,15415.04
1405,15401.63
1406,15392.86
1407,15409.13
1408,15441.82
1409,15448.08
1410,15392.75
1411,15307.19
1412,15250.43
1413,15257.76
1414,15313.87
1415,15396.29
1416,15473.19
1417,15505.73
1418,15471.79
1419,15414.94
1420,15393.61
1421,15422.46
1422,15460.8
1423,15469.9
1424,15451.19
1425,15423.55
1426,15399.8
1427,15379.75
1428,15362.48
1429,15360.3
1430,15395.15
1431,15473.9
1432,15547.66
1433,15556.49
1434,15495.47
1435,15423.74
1436,15395.26
1437,15408.28
1438,15439.75
1439,15469.26
1440,15481.42
1441,15464.05
1442,15434.26
1443,15426.97
1444,15461.69
1445,15512.41
1446,15546.15
1447,15555.62
1448,15557.12
1449,15564.23
1450,15573.71
1451,15577.74
1452,15576.88
1453,15583.05
1454,15605.36
1455,15627.06
1456,15620.42
1457,15582.37
1458,15558.52
1459,15594.81
1460,15676.11
1461,15749.23
1462,15777.75
1463,15774.89
1464,15762.42
1465,15757.97
1466,15775.55
1467,15820.99
1468,15867.24
1469,15879.73
1470,15851.34
1471,15807.21
1472,15772.27
1473,15759.65
1474,15778.09
1475,15821.18
1476,15859
1477,15864.44
1478,15848.98
1479,15842.13
1480,15853.93
1481,15854.7
1482,15814.87
1483,15757.82
1484,15738.98
1485,15779.92
1486,15813.3
1487,15763.95
1488,15653.46
1489,15576.58
1490,15595.48
1491,15659.61
1492,15697.77
1493,15687.22
1494,15649.73
1495,15607.83
1496,15580.08
1497,15583.55
1498,15618.82
1499,15668.52
1500,15714.69
1501,15741.08
1502,15732.49
1503,15695.38
1504,15663.47
1505,15666.54
1506,15702.09
1507,15756.16
1508,15809.25
1509,15834.04
1510,15811.26
1511,15777.6
1512,15791.15
1513,15861.72
1514,15923.05
1515,15914.36
1516,15862.77
1517,15833.04
1518,15853.91
1519,15892.53
1520,15913.82
1521,15912.41
1522,15896.62
1523,15875.01
1524,15856.4
1525,15848.19
1526,15846.15
1527,15840.5
1528,15829.13
1529,15824.13
1530,15837.57
1531,15868.71
1532,15910.51
1533,15951.75
1534,15973.65
1535,15961.74
1536,15943.21
1537,15965.17
1538,16038.54
1539,16108.73
1540,16122.19
1541,16088.13
1542,16045
1543,16020.02
1544,16020.71
1545,16049.79
1546,16088.97
1547,16111.07
1548,16113.09
1549,16130.91
1550,16194.06
1551,16266.87
1552,16288.28
1553,16247.81
1554,16208.82
1555,16225.54
1556,16264.56
1557,16262.24
1558,16206.31
1559,16151.18
1560,16143.93
1561,16172.17
1562,16205.53
1563,16229.45
1564,16247.21
1565,16261.09
1566,16265.33
1567,16253.15
1568,16241.91
1569,16271.96
1570,16362.7
1571,16458.45
1572,16491.75
1573,16464.55
1574,16433.74
1575,16438.79
1576,16467.15
1577,16498.24
1578,16520.73
1579,16529.22
1580,16525.35
1581,16525.68
1582,16546.48
1583,16584.92
1584,16628.68
1585,16671.2
1586,16715.64
1587,16765.33
1588,16819.12
1589,16874.08
1590,16924.62
1591,16961.8
1592,16982.97
1593,17014.21
1594,17087.75
1595,17198.39
1596,17305.86
1597,17380.71
1598,17431.88
1599,17474.84
1600,17513.33
1601,17543.11
1602,17561.32
1603,17568.43
1604,17564.72
1605,17545.63
1606,17504.46
1607,17444.2
1608,17382.33
1609,17333.52
1610,17291.6
1611,17244.42
1612,17198.27
1613,17178.31
1614,17198.83
1615,17235.21
1616,17256.33
1617,17250.15
1618,17217.87
1619,17173.78
1620,17158.93
1621,17206.59
1622,17267.97
1623,17259.68
1624,17168.68
1625,17076.08
1626,17048.25
1627,17059.37
1628,17060.37
1629,17028.72
1630,16964.3
1631,16883.47
1632,16842.34
1633,16892.04
1634,16985.6
1635,17026.51
1636,16979.98
1637,16904.27
1638,16856.19
1639,16848.29
1640,16879.11
1641,16928.48
1642,16959.51
1643,16948.75
1644,16909.39
1645,16860.55
1646,16821.46
1647,16811.15
1648,16830.77
1649,16855.64
1650,16863.99
1651,16856.26
1652,16839.2
1653,16822.36
1654,16817.54
1655,16828.41
1656,16839.94
1657,16837.23
1658,16825.33
1659,16817.66
1660,16815.41
1661,16804.93
1662,16781.29
1663,16773.11
1664,16811.92
1665,16877.99
1666,16919.14
1667,16917.95
1668,16917.73
1669,16954.95
1670,17000.22
1671,17005.81
1672,16970.04
1673,16931.59
1674,16915.96
1675,16914.25
1676,16912.43
1677,16894.99
1678,16847.09
1679,16791.46
1680,16793.44
1681,16880.38
1682,16956.26
1683,16917.59
1684,16813.09
1685,16772.24
1686,16833.34
1687,16906.34
1688,16917.9
1689,16895.01
1690,16885.24
1691,16898.53
1692,16920.56
1693,16940.84
1694,16955.9
1695,16964.01
1696,16968.46
1697,16973.58
1698,16978.71
1699,16979.6
1700,16973.82
1701,16962.42
1702,16947.7
1703,16935.94
1704,16934.84
1705,16954.14
1706,17004.93
1707,17070.54
1708,17081.41
1709,16990.14
1710,16891.86
1711,16916.94
1712,17038.52
1713,17105.95
1714,17054.48
1715,16989.1
1716,17006.05
1717,17063.37
1718,17081.59
1719,17057.94
1720,17047.78
1721,17077.07
1722,17116.41
1723,17134.33
1724,17116.79
1725,17057.68
1726,16990.91
1727,16977.56
1728,17030.55
1729,17084.68
1730,17086.01
1731,17053.2
1732,17021.04
1733,17005.39
1734,17010.62
1735,17031.54
1736,17050.3
1737,17055.85
1738,17062.06
1739,17084.24
1740,17107.75
1741,17104.6
1742,17083.93
1743,17095.89
1744,17155.86
1745,17187.23
1746,17120.71
1747,17018.49
1748,16986.92
1749,17034.88
1750,17089.04
1751,17108.14
1752,17115.29
1753,17130.51
1754,17130.25
1755,17084.68
1756,17023.85
1757,17013.13
1758,17054.33
1759,17064.95
1760,16998.9
1761,16932.53
1762,16947.03
1763,17004.41
1764,17020.85
1765,16991.13
1766,16980.18
1767,17015.23
1768,17047.82
1769,17038.96
1770,17024.83
1771,17052.7
1772,17083.53
1773,17031.54
1774,16908.76
1775,16843.49
1776,16902.11
1777,16981.13
1778,16978.79
1779,16945.96
1780,16976.69
1781,17045.21
1782,17041.97
1783,16945.64
1784,16863.61
1785,16868.9
1786,16902.94
1787,16895.53
1788,16859
1789,16836.92
1790,16845.59
1791,16879.21
1792,16923.33
1793,16950.89
1794,16943.45
1795,16914.01
1796,16883.53
1797,16884.02
1798,16948.41
1799,17045.33
1800,17091.03
1801,17052.21
1802,16978.06
1803,16921.28
1804,16922.07
1805,17003.23
1806,17088.87
1807,17071.77
1808,16975.18
1809,16921.87
1810,16951.05
1811,16977.06
1812,16948.03
1813,16933.66
1814,16999.29
1815,17067.56
1816,17024.5
1817,16914.63
1818,16884.08
1819,16961.24
1820,17030.02
1821,17017.99
1822,16969.95
1823,16933.64
1824,16900.28
1825,16851.7
1826,16819.95
1827,16858.9
1828,16940.55
1829,16962.21
1830,16905.93
1831,16897.86
1832,17008.13
1833,17096.76
1834,17023.54
1835,16876.42
1836,16812.36
1837,16842.78
1838,16886.46
1839,16890.83
1840,16837.38
1841,16743.73
1842,16694.33
1843,16744.55
1844,16820.25
1845,16833.89
1846,16797.07
1847,16758.88
1848,16740.2
1849,16742.13
1850,16762.39
1851,16795.18
1852,16832.79
1853,16864.16
1854,16877.86
1855,16862.78
1856,16812.38
1857,16748.39
1858,16700.28
1859,16660.22
1860,16598.39
1861,16541.68
1862,16577.01
1863,16705.59
1864,16773.7
1865,16682.9
1866,16543.55
1867,16479.39
1868,16487.67
1869,16525.96
1870,16552.66
1871,16530.51
1872,16490.09
1873,16517.32
1874,16613.28
1875,16663.64
1876,16614.02
1877,16555.57
1878,16565.49
1879,16605.88
1880,16621.76
1881,16605.82
1882,16567.91
1883,16516.75
1884,16460.58
1885,16410.59
1886,16380.44
1887,16375.34
1888,16388.87
1889,16410.72
1890,16424.23
1891,16415.75
1892,16384.4
1893,16336.38
1894,16301.38
1895,16312.15
1896,16360.06
1897,16415.16
1898,16447.2
1899,16426.81
1900,16356.47
1901,16274.91
1902,16220.76
1903,16228.91
1904,16293.92
1905,16309.52
1906,16204.52
1907,16103.68
1908,16142.47
1909,16239.76
1910,16250.43
1911,16170.27
1912,16071.15
1913,16024.08
1914,16094.94
1915,16238.79
1916,16289.9
1917,16195.2
1918,16088.74
1919,16062.93
1920,16079.21
1921,16095.34
1922,16115.33
1923,16146.67
1924,16168.67
1925,16157.35
1926,16124.03
1927,16094.68
1928,16090.73
1929,16126.94
1930,16152.21
1931,16066.15
1932,15896.72
1933,15814.4
1934,15872.98
1935,15938.78
1936,15922.85
1937,15860.53
1938,15787.95
1939,15700.3
1940,15603.59
1941,15573.52
1942,15671.06
1943,15786.03
1944,15777.71
1945,15706.82
1946,15709.5
1947,15755.49
1948,15723.97
1949,15640.1
1950,15638.65
1951,15718.22
1952,15739.15
1953,15677.39
1954,15666.87
1955,15746.66
1956,15778.9
1957,15695.64
1958,15616.89
1959,15612.38
1960,15542.4
1961,15306.33
1962,15077.22
1963,15042.55
1964,15165.06
1965,15337.23
1966,15425.44
1967,15319.82
1968,15175.17
1969,15237.34
1970,15402.04
1971,15384.28
1972,15241.05
1973,15260.24
1974,15403.53
1975,15353.12
1976,15103.49
1977,14985.58
1978,15084.63
1979,15151.56
1980,15070.62
1981,14965.15
1982,14918.46
1983,14902.11
1984,14881.21
1985,14833.47
1986,14773.98
1987,14811.94
1988,14995.08
1989,15129.33
1990,15045.93
1991,14849.7
1992,14701.45
1993,14724.89
1994,14981.78
1995,15262.58
1996,15308.83
1997,15106.53
1998,14749.45
1999,14440.2
2000,14391.5
2001,14499.31
2002,14528.3
2003,14508.62
2004,14601.26
2005,14739.58
2006,14725.29
2007,14552.65
2008,14352.65
2009,14226.1
2010,14241.17
2011,14345.48
2012,14388.16
2013,14343.06
2014,14304.42
2015,14313.41
2016,14349.96
2017,14369.76
2018,14307.24
2019,14195.61
2020,14186.08
2021,14271.7
2022,14232.54
2023,14026.65
2024,13879.39
2025,13895.72
2026,13971.68
2027,14007.03
2028,13935.47
2029,13772.65
2030,13664
2031,13684.19
2032,13764.17
2033,13816.67
2034,13748.69
2035,13573.22
2036,13500.33
2037,13615.56
2038,13725.36
2039,13697.21
2040,13580.23
2041,13453.31
2042,13411.99
2043,13467.71
2044,13459.37
2045,13321.42
2046,13223.16
2047,13263.39
2048,13340.81
2049,13360.76
2050,13291.11
2051,13136.29
2052,12958.85
2053,12842.93
2054,12899.96
2055,13114.15
2056,13222.13
2057,13096.8
2058,12915.42
2059,12817.74
2060,12816.12
2061,12869.6
2062,12869.33
2063,12788.27
2064,12744
2065,12774.96
2066,12775.49
2067,12693.67
2068,12576.09
2069,12475.68
2070,12441.54
2071,12463.09
2072,12454.31
2073,12401.28
2074,12381.7
2075,12410.52
2076,12427.21
2077,12404.58
2078,12354.87
2079,12303.94
2080,12285.47
2081,12273.61
2082,12198.55
2083,12115.3
2084,12160.05
2085,12227.96
2086,12075.35
2087,11842.55
2088,11866.41
2089,12002.77
2090,11892.11
2091,11661.15
2092,11621.93
2093,11667.86
2094,11566.8
2095,11440.49
2096,11484.99
2097,11583.1
2098,11558.49
2099,11426.24
2100,11248.58
2101,11065.4
2102,10936.94
2103,11003.26
2104,11277.65
2105,11396.62
2106,11180.3
2107,10993.02
2108,11029.87
2109,11036.6
2110,10913.17
2111,10871.65
2112,10957.13
2113,10968.57
2114,10863.75
2115,10784.02
2116,10756.88
2117,10704.47
2118,10615.74
2119,10529.64
2120,10465.25
2121,10429.74
2122,10435.57
2123,10488.36
2124,10534.4
2125,10509.12
2126,10406.92
2127,10258.5
2128,10163.62
2129,10181.04
2130,10202.55
2131,10138.5
2132,10010.48
2133,9886.97
2134,9888.148
2135,9968.313
2136,9857.581
2137,9571.727
2138,9435.045
2139,9518.172
2140,9669.251
2141,9750.551
2142,9662.947
2143,9513.698
2144,9472.219
2145,9483.846
2146,9444.942
2147,9391.342
2148,9367.472
2149,9329.293
2150,9246.005
2151,9155.184
2152,9072.856
2153,8965.13
2154,8857.28
2155,8846.897
2156,8901.48
2157,8878.086
2158,8789.719
2159,8743.418
2160,8735.83
2161,8714.906
2162,8661.174
2163,8578.631
2164,8517.611
2165,8496.217
2166,8419.1
2167,8259.295
2168,8147.607
2169,8110.436
2170,8023.605
2171,7927.941
2172,8001.282
2173,8121.197
2174,8023.537
2175,7874.313
2176,7943.432
2177,8056.545
2178,7994.44
2179,7826.167
2180,7658.759
2181,7556.066
2182,7502.297
2183,7379.968
2184,7189.635
2185,7054.247
2186,7074.867
2187,7288.243
2188,7393.274
2189,7093.671
2190,6803.192
2191,6891.912
2192,7013.941
2193,6948.695
2194,6944.536
2195,7035.932
2196,6952.04
2197,6746.906
2198,6713.011
2199,6789.067
2200,6767.208
2201,6667.934
2202,6580.415
2203,6569.796
2204,6600.509
2205,6452.113
2206,6130.767
2207,5942.984
2208,5967.124
2209,6083.912
2210,6195.588
2211,6221.19
2212,6095.698
2213,5853.295
2214,5797.884
2215,6010.026
2216,6106.288
2217,5987.507
2218,5892.149
2219,5812.711
2220,5614.568
2221,5477.826
2222,5567.579
2223,5527.395
2224,5217.015
2225,5194.522
2226,5470.216
2227,5306.109
2228,4836.37
2229,4783.99
2230,5015.828
2231,5097.926
2232,4968.56
2233,4708.268
2234,4503.834
2235,4482.721
2236,4662.462
2237,4863.991
2238,4813.563
2239,4603.235
2240,4461.475
2241,4517.202
2242,4707.448
2243,4633.374
2244,4305.758
2245,4221.892
2246,4308.853
2247,4186.375
2248,4054.001
2249,4149.214
2250,4152.188
2251,3963.432
2252,4011.368
2253,4243.199
2254,4170.789
2255,3861.045
2256,3620.928
2257,3513.235
2258,3548.92
2259,3764.578
2260,3983.924
2261,3824.605
2262,3522.73
2263,3589.255
2264,3784.305
2265,3752.624
2266,3526.329
2267,3245.829
2268,3098.878
2269,3075.712
2270,3039.617
2271,3009.592
2272,3036.998
2273,3084.153
2274,3121.236
2275,3151.752
2276,3111.406
2277,2907.985
2278,2637.319
2279,2448.017
2280,2412.732
2281,2507.868
2282,2590.636
2283,2591.815
2284,2522.939
2285,2492.681
2286,2552.898
2287,2492.909
2288,2336.833
2289,2455.744
2290,2634.102
2291,2395.644
2292,2171.338
2293,2320.412
2294,2294.575
2295,1973.153
2296,1853.831
2297,1983.542
2298,2128.066
2299,2055.891
2300,1736.641
