400,17797.02
401,15076.618612964485
402,14627.604238899203
403,20755.150978492096
404,15505.725428359068
405,19748.057236306795
406,19998.36834372617
407,20121.020021676544
408,14964.150363947578
409,14377.641499782276
410,20384.8021112385
411,19630.811596978387
412,19392.49893696026
413,19738.39146324085
414,15301.186478320644
415,20896.025848235407
416,14172.021500282694
417,20683.651673926666
418,15371.372882447191
419,15213.868717854599
420,19616.34220820844
421,21040.460747103214
422,20712.149999752095
423,19829.253808928457
424,19922.544645185597
425,20599.39628113826
426,20543.46438348637
427,14334.840543821923
428,15583.074857982332
429,19624.007312047594
430,20831.577529821792
431,20461.05288561253
432,14527.292315773648
433,19866.814856119694
434,20605.53938868802
435,15192.368015624093
436,19630.82349737531
437,15389.359984854169
438,20758.096760258974
439,20268.614550898576
440,14312.21122789252
441,14702.71518070521
442,15533.915698964694
443,14202.336979487292
444,14082.80050086209
445,14546.327754308359
446,15017.245088506425
447,20030.543636071925
448,20122.849315817843
449,19968.939312840845
450,14641.37593359866
451,20344.73938032475
452,19112.891408358602
453,19651.944399195105
454,14705.406208078793
455,15470.606117118255
456,20565.627030882177
457,14428.64869327115
458,15375.62922330621
459,19785.362815811357
460,18978.528734268806
461,19788.579020231733
462,14519.154453651545
463,19843.78879697261
464,14741.189263146394
465,13997.555418823351
466,14206.485413062468
467,19821.714150367967
468,20228.406608881764
469,14104.41118895651
470,18768.191341534326
471,19182.685728153963
472,13881.704037582664
473,13508.528619978248
474,18736.592033278077
475,13740.744333178387
476,14665.608687596035
477,20064.341625166922
478,19569.320910966322
479,13692.633508245768
480,13465.159987370704
481,13455.275248600432
482,14085.545422952904
483,18654.602366323703
484,14125.417553262045
485,18488.68749246185
486,18721.03284613767
487,19744.637128690643
488,13687.273390876244
489,13701.199827867633
490,18263.390316754434
491,19304.8973317179
492,18763.198033762095
493,14788.528164814643
494,14686.825781419233
495,14074.502274816374
496,13661.393807942117
497,18166.639102130313
498,14307.988505294026
499,18393.17006059782
500,13294.527443091352
501,18000.438516068087
502,18493.759493076508
503,14328.194834063144
504,18557.423146110377
505,18629.671614262257
506,18311.008732893373
507,14057.812111960331
508,19349.049883238655
509,18991.407926830987
510,13946.190944043354
511,18803.593169373078
512,13051.559686508439
513,17732.818794714865
514,14261.178481371313
515,18788.775857324083
516,17881.531211524456
517,18945.819537161664
518,18425.56106056004
519,14108.241055694829
520,18291.03430771805
521,18303.42713647621
522,13665.838872122937
523,17510.98196040353
524,18691.878229976915
525,13104.492445043592
526,13457.825200886014
527,13648.460771379472
528,12774.01941356529
529,12510.154247021619
530,13314.514365424133
531,18071.649849877576
532,18214.553851178498
533,13450.193801629252
534,12771.85905723668
535,13793.398727435524
536,17662.339596329915
537,17693.521886827017
538,18339.346383325126
539,18236.178702080444
540,17096.600538138762
541,17179.03202051692
542,13124.838667007645
543,17485.64383659281
544,12305.895365097951
545,17806.93545047876
546,12425.80009743042
547,17485.77510333986
548,17105.02855175744
549,13388.858944745965
550,13525.316555511828
551,12361.790410556148
552,13402.885488250295
553,12975.614615427823
554,13439.811421220844
555,17548.226557830443
556,17600.263764520696
557,17391.862356868987
558,13110.505188540938
559,17163.607629964445
560,17983.141096582396
561,12017.416063440616
562,13137.841110103982
563,12339.861746450231
564,12753.584384480762
565,13384.81701165752
566,12966.879192960838
567,16587.90773769668
568,17590.526303939136
569,11764.748336711442
570,12549.430020481474
571,13003.078099693395
572,11731.835964584725
573,12938.745662675155
574,16903.709530393917
575,16435.211171378567
576,11978.494522873112
577,16939.669750830133
578,12787.04536671955
579,11731.339927460132
580,12253.227001659343
581,16801.697624921897
582,16729.58987193521
583,15954.966277544541
584,12203.542646079386
585,16304.374028488548
586,11581.517332477686
587,16300.286717918514
588,12551.698920159306
589,12497.837260654289
590,12751.72090659682
591,12896.157923276169
592,12222.007097330672
593,16724.038173961457
594,12651.724193055192
595,12771.649884568988
596,17029.28908809015
597,16181.187907742971
598,16085.72055835281
599,16961.948941111514
600,12450.711139328585
601,16034.501923129943
602,15559.001219411279
603,11529.311876425434
604,12172.121999063778
605,15740.18059159473
606,12083.937969176683
607,12315.321017427203
608,15830.160351610772
609,12454.720472218627
610,15981.118729981097
611,11878.66304681752
612,11583.14149421146
613,16660.09728276764
614,12221.087636572036
615,15894.253974857218
616,15326.044386851263
617,16140.064045215975
618,11750.780748201263
619,11925.98027949835
620,11934.500550064398
621,12151.443513300745
622,15783.602703948827
623,15500.896889311438
624,10931.854801599651
625,12000.270730283939
626,11934.371572256146
627,11195.621159408018
628,11922.560695201888
629,10878.914670132102
630,15922.790531178722
631,11546.848297035875
632,15101.387130725248
633,14915.56990960543
634,16140.561985468348
635,11252.601286535439
636,15453.650038108108
637,15364.519642304109
638,10960.035079928788
639,15167.137657208505
640,15843.827702168184
641,16073.895161917037
642,15406.640327177505
643,14819.51530652065
644,10849.603372199643
645,15247.42197527548
646,15739.040808850488
647,15587.027313624749
648,11469.693824318387
649,11767.627093722707
650,15141.323544075556
651,11845.492737456865
652,14773.773916229402
653,11393.275274747943
654,10944.908984697042
655,14996.483575594932
656,10651.858081020342
657,15029.539063356482
658,11057.044716597236
659,15390.872977744577
660,15478.279241955102
661,14608.963709249234
662,11519.125509345704
663,11295.410485055812
664,14993.227117539443
665,10494.987936626436
666,10956.741610651557
667,11471.980399814469
668,11502.014460219272
669,15343.178998554262
670,14894.674757622293
671,11124.942961298024
672,14941.779428402433
673,15314.569282894163
674,15070.050629806501
675,14511.680520830072
676,10523.160238329587
677,15105.245121067801
678,14308.829725215986
679,10310.346388129208
680,15095.638917216635
681,10429.965481215246
682,14499.873227437776
683,14228.633061670142
684,14999.9847565316
685,14114.280941330204
686,14378.920990135537
687,11119.88507724685
688,14260.635629382145
689,13972.688616260417
690,14514.574330268384
691,13812.503492494729
692,10234.88469691051
693,10839.400349815802
694,13667.249871227597
695,9950.386748492087
696,14164.35581487865
697,13782.521059255518
698,14693.590360772794
699,10863.407266228964
700,10026.68545259888
701,14317.196493210276
702,14591.498629703288
703,9957.876065695786
704,14166.654495000295
705,13723.64444311992
706,14288.92409439016
707,10232.935921958331
708,13654.994825743852
709,10263.312423587067
710,13957.501624353725
711,10672.23992095028
712,14199.17299164175
713,13367.396487579355
714,14424.82548163557
715,13537.942342802391
716,13944.700608091081
717,10750.498554556189
718,14075.518579107853
719,14274.758583913432
720,14024.360321290531
721,10640.96940159408
722,10811.077973995396
723,13696.406947248843
724,14026.282996762655
725,10005.242983972212
726,10206.301736083231
727,13521.97398644636
728,14209.989504087078
729,13915.983117166837
730,10309.691543504661
731,13392.407332163204
732,13151.945971024885
733,13727.813984865612
734,13944.482234729985
735,13203.465730695832
736,13866.032683541469
737,14007.23783667414
738,10530.03168284465
739,13081.4742329338
740,9527.528560262346
741,12896.264839007205
742,9878.369374513713
743,9482.65398174842
744,13059.017304020186
745,9910.428780169861
746,13756.57635539021
747,9667.399513349485
748,10127.655283856639
749,12932.844680195954
750,13383.11152883742
751,10141.996460924214
752,9936.820815351944
753,12694.99972519616
754,13387.348844682696
755,13454.352039969286
756,13113.212018097494
757,9731.05023502707
758,10186.26422443875
759,9831.59101384773
760,13419.95642878983
761,13208.479974786445
762,12692.266380323304
763,12434.340816286796
764,12825.066853563363
765,13017.781018890055
766,12820.131291213565
767,9329.49419221228
768,13159.686589271989
769,12843.95283324732
770,12839.948778243643
771,8946.469659043816
772,9737.454326735648
773,12376.01958132817
774,12458.16688436645
775,9983.41585432227
776,9428.907811752037
777,9758.192794686429
778,12687.110796404048
779,9473.6444092494
780,12298.619518476235
781,9512.023717208576
782,9278.192013495169
783,12894.081729962341
784,9281.641009250141
785,9146.580324735602
786,12946.634822947844
787,13101.353666426046
788,9027.13392064512
789,12797.493499127531
790,9532.900178774918
791,12087.843094611795
792,9650.92514439745
793,12490.940706491729
794,12116.506749331786
795,12635.265206625592
796,12294.047530688264
797,9686.881185004926
798,8685.344757678049
799,11997.83881372865
800,9266.645134725519
801,12643.906973059004
802,8883.215758844875
803,9238.19458238472
804,11987.111161847817
805,9583.886615582955
806,12672.327658603148
807,8651.006708188017
808,9136.237777509115
809,9032.49436254346
810,9415.327500459818
811,11860.12351068943
812,12023.585626215188
813,8567.923807993988
814,8958.643251557434
815,8494.180774716651
816,12208.344401657974
817,8898.848121025287
818,11786.153287809988
819,12296.4438475353
820,8547.07270871887
821,8556.918492765677
822,11873.60941045331
823,8786.05691765719
824,11437.647370105113
825,9038.627373488813
826,8479.987894009348
827,8809.30720979685
828,11716.13316338106
829,9235.012674745123
830,9027.490561659752
831,11900.945088300812
832,12257.354621314043
833,11949.297050822994
834,12240.488718659833
835,8741.208300352446
836,8607.545746763493
837,11287.49762864623
838,12084.76148539972
839,11406.282428988512
840,8959.355197848665
841,9020.48337247269
842,8192.462427594322
843,11747.848844508899
844,12026.638569899094
845,8098.802448455152
846,8837.038859627295
847,11370.717607870332
848,11752.970058243145
849,8545.347985328686
850,11922.172806929148
851,8633.863886911127
852,8466.838662399414
853,11591.306931369254
854,7995.411966032224
855,8930.346265756194
856,10992.218153546459
857,11200.0470140912
858,8452.456251359703
859,11099.116147943972
860,11558.606460950241
861,7896.7202777409375
862,7960.498186311398
863,8030.073960257115
864,11721.958350630473
865,8749.808789644741
866,11550.491026963726
867,11452.145961594453
868,7885.94511885748
869,8358.56869834106
870,8630.919614552624
871,11047.955223425974
872,8283.51967130671
873,8460.597767473242
874,8013.106586673848
875,11365.846815104609
876,8214.397580208288
877,8578.717275933272
878,8615.378712972115
879,8273.496250273647
880,8279.982883031615
881,8076.17435180596
882,11286.395201147918
883,8398.764819441425
884,11158.70382806258
885,7707.743829895257
886,11040.66324803171
887,11417.037738483306
888,8240.665844048493
889,8015.779743972179
890,8304.023073615323
891,8074.009479787839
892,8012.250299692617
893,10918.71056740857
894,8304.500054620627
895,10891.370799898927
896,10896.663654064834
897,11069.373631599103
898,8430.18205671938
899,10968.951252073502
900,8090.594832287411
901,7770.669322196358
902,7783.684797217918
903,10520.654769063798
904,8274.72783500053
905,10705.996501195785
906,7723.839509710382
907,11154.491648260298
908,7740.881199456999
909,7638.202473072214
910,10300.58755908079
911,10664.007793153742
912,7411.055503929085
913,10769.938852827794
914,8012.379053502186
915,7526.825230115269
916,10969.344993672632
917,10487.506814472648
918,10154.090630295406
919,10583.34820591161
920,7535.357766169961
921,7614.930354028665
922,8052.4950384863905
923,10139.752917013773
924,10849.554906583016
925,10632.48600710861
926,10175.544773934798
927,7587.967293398583
928,10371.768259644783
929,7792.68929426811
930,10442.545677129927
931,7673.301963505425
932,7811.876985287549
933,7772.162837981468
934,7362.374223393977
935,9918.385272566582
936,7636.6237323246505
937,10115.072412567162
938,10474.634758144322
939,10633.06550365588
940,10237.55489224561
941,10159.961747738716
942,7876.734790248469
943,10090.257735770556
944,9739.091998991515
945,10452.455004996606
946,10109.635972043649
947,7359.590979477744
948,7582.227974120981
949,9946.974252649947
950,7611.953352147636
951,10530.422286433652
952,10029.55644746007
953,10159.308809653261
954,7838.544033908242
955,7515.587562584049
956,7293.650219757768
957,10364.739706947332
958,7435.970874523509
959,6952.8144283281235
960,6940.507575894929
961,9784.259580991262
962,6996.096117290657
963,9839.986858307322
964,7670.104992601277
965,7336.367997800609
966,7489.112565667954
967,7642.170276250857
968,9883.906355781832
969,7474.278613663733
970,10154.367641074316
971,9507.41559523978
972,6944.64894941762
973,10264.01312212624
974,7333.6876933904605
975,7413.392887982763
976,7161.408704859064
977,9850.739251552093
978,9972.968590159797
979,10012.293480356357
980,7496.46316636538
981,7498.16336640553
982,9804.626016298313
983,7353.776674624737
984,9782.93153428875
985,9681.092708281963
986,7466.445616622624
987,10092.874309181754
988,6827.895838209474
989,9656.74307113144
990,9881.523223572965
991,7418.602611291525
992,7298.7389245202785
993,7014.060973804549
994,9766.067006877112
995,9893.994706137793
996,9349.760046410349
997,6779.710029776221
998,9528.773095452734
999,9624.32143161547
1000,6973.868316213981
1001,7051.168237543467
1002,7082.175302748352
1003,9200.440870862676
1004,9236.272804225351
1005,9506.534703376428
1006,6825.842169898044
1007,7232.823015539086
1008,6734.503355145574
1009,9704.787954779871
1010,9760.620846963766
1011,9188.682258185012
1012,9791.17224999159
1013,7316.654703646779
1014,9273.639652834536
1015,6710.086865291467
1016,9575.178129856353
1017,9215.47963685125
1018,6872.769543077099
1019,6898.2086936078285
1020,9346.064266130164
1021,7224.277489301264
1022,6673.510401286424
1023,9263.13740413247
1024,9586.885625834168
1025,9320.723432538127
1026,9561.727991500822
1027,6552.863046044655
1028,9052.280661809342
1029,6996.079936763543
1030,6828.445921245757
1031,9670.804087490935
1032,6556.399772560996
1033,6626.781056017464
1034,9205.87583807567
1035,9529.237382031268
1036,6716.208194304492
1037,6546.4418308929435
1038,9393.543946126005
1039,9302.966187323495
1040,6643.136381745567
1041,9034.057906054275
1042,6760.811797666509
1043,9552.542720757612
1044,9471.398233990913
1045,6714.529903875816
1046,7070.923235423614
1047,7029.272135059895
1048,9334.209914532232
1049,9734.485977645805
1050,6859.3509657324685
1051,8906.034844819076
1052,6526.011355453339
1053,9330.009683321894
1054,9199.373327406547
1055,6661.669232606956
1056,9555.343678003876
1057,7031.747653468356
1058,8808.870610044716
1059,9227.389526960427
1060,6781.177885126357
1061,9335.072519707566
1062,9370.700424960176
1063,7084.237404012084
1064,6903.06136078374
1065,6820.694344315941
1066,8827.512738309004
1067,9366.777662838025
1068,9432.179128254982
1069,6479.573143849124
1070,9257.389045008618
1071,7047.9364918479905
1072,6434.677857781271
1073,6596.41946119906
1074,9239.199320622693
1075,8898.944267105464
1076,9141.947932355055
1077,9144.14025492611
1078,9479.51992783822
1079,6860.026927883398
1080,9294.269369670885
1081,6540.776192859274
1082,6663.280624819129
1083,6552.816828410811
1084,6846.914405847092
1085,9062.374063941757
1086,7085.697072489329
1087,9581.139910813223
1088,9467.910801597565
1089,7229.391980773001
1090,6959.196133825204
1091,6705.6827959999255
1092,9461.776840424573
1093,6831.647615135863
1094,9536.556214895812
1095,9175.94367608845
1096,8766.28453765198
1097,6674.066218710616
1098,8989.711424628276
1099,9506.78685322252
1100,9140.421217302162
1101,8970.831355320415
1102,9163.026789793059
1103,8699.511195588315
1104,9368.636631490555
1105,6662.555181927087
1106,6888.929921344885
1107,8680.40139063854
1108,8773.299354050549
1109,6592.6573286735365
1110,6457.526381206421
1111,9130.807639667613
1112,6918.095993083426
1113,7015.852024787035
1114,6303.746305273826
1115,9190.066028175484
1116,6311.567772428283
1117,6626.063574903045
1118,9289.869448237921
1119,9396.846544031961
1120,6850.0677438311795
1121,6954.526335937071
1122,8723.81369990369
1123,6891.278103346628
1124,6332.022353735453
1125,6624.447916347886
1126,6611.394465464241
1127,6957.570680280773
1128,6811.437248319225
1129,6382.723265308936
1130,8591.974334238243
1131,6267.3630219162
1132,8589.58953759469
1133,6418.419889175645
1134,6582.487490006524
1135,8460.02445622654
1136,8892.662569190086
1137,8901.878500795023
1138,8987.804278780877
1139,6325.5799944951805
1140,6646.633487430558
1141,6203.351399925554
1142,6549.530105791344
1143,8657.843827890869
1144,8772.255808269572
1145,8891.12307367738
1146,6740.924247099624
1147,6094.254460173632
1148,6346.020844272392
1149,6246.630781349756
1150,8586.267741692987
1151,6096.318954075813
1152,6578.698007651328
1153,8286.129563597557
1154,8791.862704953168
1155,6191.072736121821
1156,8835.213190412234
1157,8581.790116528799
1158,6694.684544009326
1159,6425.155415153481
1160,6382.943207346417
1161,8281.210257106051
1162,8405.422286801282
1163,8743.006414053478
1164,6072.177999552624
1165,8274.584868918055
1166,8546.704804679768
1167,8497.161003571637
1168,8245.02327768596
1169,6171.54199916373
1170,6005.668927919203
1171,8693.341632553833
1172,5924.51183982342
1173,8726.831723320343
1174,6433.648465837
1175,8256.373264954791
1176,6477.159803450144
1177,6057.766596151896
1178,8186.643823197819
1179,5848.518003596333
1180,8406.144424862252
1181,8481.966394181462
1182,6159.456208325696
1183,5918.178926379387
1184,8639.36189859962
1185,8100.481344086419
1186,6489.893108860757
1187,6161.2648820991
1188,6222.084567585678
1189,6011.8540170044835
1190,5864.159223599623
1191,6128.2820838709085
1192,8504.223427074512
1193,8058.1384717385745
1194,8452.513335300973
1195,6377.2334247162025
1196,8542.795588827943
1197,6406.721165052478
1198,6394.847366507625
1199,6206.111714405278
1200,6236.692556350085
1201,8488.045548867003
1202,8434.167199393141
1203,5843.895829810925
1204,5783.890961147943
1205,8278.99373801682
1206,5841.502813582878
1207,8069.0303147002805
1208,6042.037895743705
1209,8133.44499409558
1210,5786.291782676341
1211,6424.14260874405
1212,6211.932896464875
1213,8452.59837648772
1214,6075.421976457402
1215,6172.737554477524
1216,6401.864254849402
1217,8111.4132268213325
1218,5898.22327545302
1219,6264.788385618375
1220,6443.334681507197
1221,8162.009765332522
1222,8074.323999043623
1223,8125.159935558445
1224,6031.239512407458
1225,8159.933559971451
1226,6457.618496564739
1227,8087.690220180864
1228,5782.622189125971
1229,5934.992152111384
1230,6314.52919354963
1231,6111.014671463452
1232,8540.291620600607
1233,8291.406825088108
1234,8446.87902547214
1235,8437.704712593784
1236,8180.564290158261
1237,7992.473624673004
1238,6151.376974699978
1239,7932.188723775298
1240,6290.116044549448
1241,6235.702888823927
1242,6223.114993879684
1243,8352.89483493003
1244,7920.116106645199
1245,7956.835822565108
1246,6153.029924500774
1247,8299.313344291086
1248,6393.882765527874
1249,6137.653011755141
1250,6488.230998014933
1251,8071.554993048562
1252,6410.906144508291
1253,8074.761708080676
1254,8129.739954068432
1255,5877.9298514382335
1256,6145.067620417403
1257,8158.781481361702
1258,5809.784279315961
1259,8544.120662786703
1260,8336.874960386867
1261,8085.87666162239
1262,8126.18247984991
1263,8548.076344362362
1264,6246.499371713677
1265,8300.560776508059
1266,5936.56364303081
1267,8194.325633124334
1268,6251.870588027591
1269,6447.635845835422
1270,8607.292694635347
1271,8338.520501276154
1272,8240.412721425571
1273,8545.23092287021
1274,8166.813272143605
1275,6152.767032981479
1276,8402.681818347764
1277,8580.35438956023
1278,8073.667110793861
1279,8317.334485116306
1280,8474.87014641051
1281,6427.752409471042
1282,8655.31189048863
1283,6236.820200545974
1284,6464.500720447186
1285,5887.030076220916
1286,5994.137446824359
1287,6102.540730487847
1288,8234.13165532459
1289,8458.340109549514
1290,5957.591312186162
1291,6030.388880126011
1292,5945.351432104808
1293,6290.547822096566
1294,8123.304055151598
1295,6504.027572760973
1296,6568.174257183673
1297,8466.288531252938
1298,8335.283651688547
1299,8207.865745445935
1300,6516.775855462073
1301,8458.280637285729
1302,6112.277385386911
1303,8299.023725243413
1304,8471.269832569535
1305,5899.782380987387
1306,8218.302521103817
1307,6183.974968318358
1308,6005.996873679983
1309,6551.992669929567
1310,8105.571562137356
1311,8263.884725789008
1312,6275.815645187723
1313,8389.241163853505
1314,8452.1046172496
1315,6587.955878795821
1316,6352.770755015912
1317,8760.986250942702
1318,6316.667043183457
1319,6343.299351436514
1320,8295.568791705207
1321,8293.033775299955
1322,6142.488806016485
1323,6250.753761057379
1324,6328.842958916907
1325,6156.747969419811
1326,8354.070158484534
1327,6006.3150709177535
1328,6626.16054752564
1329,8452.120207223932
1330,8797.798739733933
1331,8252.691685750484
1332,8352.619706906977
1333,8468.810730729698
1334,8870.303907675272
1335,6651.094268315276
1336,8528.042479034142
1337,6232.953384310127
1338,8734.454236845937
1339,8881.449126256768
1340,8251.423213053498
1341,6587.343679847212
1342,6023.575155950953
1343,6655.443878623725
1344,8340.884075936341
1345,8403.023386926721
1346,8861.655456314415
1347,6649.935392911835
1348,6656.146722714819
1349,8652.404368058696
1350,8480.196101837982
1351,8370.017694509432
1352,6093.018521607536
1353,6467.4713600305795
1354,9012.12266661662
1355,6444.5067907866605
1356,8524.436096190228
1357,6112.826960284979
1358,8418.880800201849
1359,6350.838098308292
1360,6421.751495231071
1361,8888.805722202153
1362,8460.87540204754
1363,8580.074656912273
1364,6533.712764547497
1365,6191.8698211523715
1366,8352.706359805536
1367,8520.513942251428
1368,8593.299930702175
1369,6705.815568509883
1370,8614.682099259546
1371,6647.251087837291
1372,6446.356062210496
1373,6476.859883172164
1374,6847.695640609964
1375,6924.11536697018
1376,6586.751207177631
1377,8838.115538295178
1378,6626.589692643144
1379,6790.031343050038
1380,8748.884659604395
1381,6680.617896232642
1382,9148.648260417654
1383,9004.712652871005
1384,8784.705844101818
1385,6892.4888329872365
1386,9129.472504400812
1387,6744.672179512857
1388,6563.748530519626
1389,6254.659501027086
1390,6796.769159336461
1391,8476.611961289982
1392,6521.4832568518295
1393,8731.331155696207
1394,8823.712078014945
1395,6527.479854806247
1396,6479.09970527152
1397,6800.01845519285
1398,6401.315731599696
1399,6716.728394546482
1400,8750.367416180468
1401,8584.81706010177
1402,6635.873571769082
1403,6619.033489809349
1404,6187.051930899927
1405,8392.839676782321
1406,8843.356189929871
1407,8652.200086968402
1408,6129.7270191985135
1409,8609.567726161276
1410,6269.9959820391605
1411,6516.591977873929
1412,9030.805401933841
1413,8891.79123204306
1414,6803.789878016775
1415,6504.275552123244
1416,8740.12955668874
1417,6837.2429253174005
1418,8866.998585364672
1419,8933.294750515648
1420,6517.545523174707
1421,6697.478165007314
1422,6289.699434535246
1423,8562.49417981997
1424,8743.39133384134
1425,6145.83265928041
1426,8659.78252195543
1427,6782.592848006799
1428,6742.8991141522265
1429,6825.610997254062
1430,9075.320882471378
1431,6489.224306329309
1432,8875.108338302462
1433,6808.417246870161
1434,6702.853241500957
1435,9177.028911596439
1436,8756.756225296527
1437,6619.760143829333
1438,6201.225640830947
1439,8754.68751011874
1440,8780.378767299613
1441,6320.662922209268
1442,8565.909096006324
1443,6787.15152540153
1444,8804.159831908835
1445,6917.934210372247
1446,8613.511664151776
1447,8899.208635707773
1448,9280.440169989688
1449,8801.665977426777
1450,8974.094223287912
1451,9444.669905997547
1452,6730.368293213471
1453,8948.335749234137
1454,9215.013071211173
1455,9074.340147415318
1456,8868.877983564018
1457,8902.72873051004
1458,6457.616734533757
1459,9388.275262454948
1460,7027.97374119923
1461,9015.085972778219
1462,9238.205446969274
1463,9443.37313946776
1464,8747.6668104044
1465,6514.10739992063
1466,6375.3149367979795
1467,6628.993080626621
1468,6894.3108287417845
1469,6758.605106265192
1470,8810.240175747886
1471,9473.074741175067
1472,9171.395461859773
1473,9297.165111719087
1474,8934.20009913753
1475,9058.376599970792
1476,9036.794209474874
1477,8890.188686793432
1478,6917.012562375746
1479,7033.655071966971
1480,8872.09574511291
1481,7115.516914813494
1482,7151.981368559516
1483,6739.72986959394
1484,6982.756834159373
1485,9312.869907577493
1486,9204.257526151783
1487,9387.85813901477
1488,9570.871541413288
1489,8895.87745172847
1490,6661.732387698949
1491,6515.757015498399
1492,9096.97974607869
1493,6833.246498678123
1494,6511.776903281133
1495,8925.044819836625
1496,8918.026584235702
1497,9531.858443285077
1498,6545.221637582934
1499,6982.59641741614
1500,6590.776372122305
1501,9446.731251457644
1502,9289.27845528329
1503,6428.340096565566
1504,7077.759058962108
1505,6678.743040946125
1506,6604.7025629782
1507,9235.399004563162
1508,6635.163997215828
1509,6761.900474452468
1510,6520.311575779247
1511,9445.71641913278
1512,6653.561845698655
1513,6742.983083228141
1514,7113.2867512281055
1515,6605.098930563359
1516,7197.736388838331
1517,6876.97580965527
1518,6672.900008601666
1519,9440.070575402924
1520,9243.685427382308
1521,6811.148098907772
1522,9686.766801533184
1523,9345.527793888443
1524,6851.939526067234
1525,7076.268841203724
1526,7312.131881031281
1527,8990.316018229349
1528,6495.03402584191
1529,6606.595271979473
1530,7101.0455286827755
1531,9204.52700281543
1532,6535.722664196815
1533,6864.270950526438
1534,7293.729810774564
1535,9214.069253655098
1536,6583.366471221651
1537,7092.4421895044825
1538,9820.346545076607
1539,6620.211328606384
1540,6709.78503247771
1541,6856.3385049999215
1542,9381.84934337321
1543,6857.484094499281
1544,6913.998276294739
1545,9796.313223478368
1546,6752.007969608446
1547,7045.117003265635
1548,9133.329392395628
1549,7245.638011600097
1550,7450.744811471006
1551,9165.736827346293
1552,7120.706979192853
1553,6798.314492400387
1554,7091.5651546586005
1555,7529.849340271285
1556,9760.615318363682
1557,7478.17772751035
1558,9918.299316943501
1559,10051.192230892697
1560,7109.661324602118
1561,9178.464228321061
1562,9131.786930351196
1563,7469.560921623226
1564,7129.7370273235165
1565,6937.8482702077035
1566,7239.54129956526
1567,9882.419697646454
1568,9684.339791359782
1569,9381.867512071278
1570,10003.473275727983
1571,9867.692901628689
1572,10103.082213743217
1573,6871.299263967799
1574,9698.18462205812
1575,7138.535946037372
1576,7180.383229033971
1577,10149.37505197457
1578,9976.765111400331
1579,9938.752062289026
1580,9918.874819472032
1581,10223.667089471863
1582,7776.109265277646
1583,9865.029111932034
1584,9953.671898945673
1585,10439.268472213913
1586,10307.482629766844
1587,9708.164211372528
1588,10318.023396480734
1589,7875.581554621985
1590,7212.118365649459
1591,7631.188324648315
1592,9779.256872522696
1593,7327.533952101144
1594,7767.808701038977
1595,7819.98723674757
1596,7357.495814974939
1597,9959.567161553883
1598,10504.5141744237
1599,10187.206074332007
1600,10173.871607131541
1601,7276.8428363260455
1602,10412.529446793205
1603,10263.206792912599
1604,10416.24765050488
1605,10565.506079642846
1606,10150.893081724353
1607,10163.013722780954
1608,7889.43726248541
1609,10437.12384030119
1610,10660.600288535463
1611,9974.137263117942
1612,7358.514939896612
1613,7564.084036477153
1614,10439.217704815888
1615,10437.013959286784
1616,7943.858616114266
1617,7336.176961494723
1618,10136.763443295766
1619,7263.889583097306
1620,7244.193413855658
1621,7750.147823380213
1622,7324.033687076851
1623,7201.248874131538
1624,7721.439591546898
1625,7619.881668761172
1626,7562.628690806269
1627,7745.899015658837
1628,9885.363584261171
1629,10496.169691253912
1630,9882.533070971485
1631,7507.841602492105
1632,7692.213477592334
1633,10241.12322426131
1634,7079.669805180924
1635,10131.288167673634
1636,9937.953934311457
1637,10010.993812051427
1638,10110.491204331785
1639,9799.040519933878
1640,10035.185472052282
1641,10456.112272328379
1642,7759.334765073429
1643,7155.358767510221
1644,7499.110640273377
1645,9999.493939312782
1646,10538.336145574263
1647,7233.505428290702
1648,8003.33953789089
1649,7730.907692362661
1650,7647.513518952358
1651,10546.657034379521
1652,9901.312495926393
1653,9909.151693448823
1654,7345.85704094347
1655,7300.262158999599
1656,10386.891655235366
1657,7856.941529393049
1658,9932.003172276902
1659,7873.2559868457365
1660,7709.584135174574
1661,7442.914401193835
1662,7408.878567967985
1663,10607.577401349541
1664,10755.646781365744
1665,10085.01096171829
1666,10494.2234089053
1667,7273.445832591297
1668,10778.279368269395
1669,10467.494052205077
1670,10116.75314374287
1671,7935.816546020735
1672,7532.60284295639
1673,7630.325014645828
1674,7677.740946245959
1675,10355.908149674775
1676,10365.460629826111
1677,10487.392733804323
1678,10240.659091443762
1679,7947.734461173402
1680,10683.297230427179
1681,10669.800199048728
1682,8047.427896957184
1683,10072.448068590375
1684,7178.626347798329
1685,7327.912410911104
1686,10666.679666075303
1687,7945.545293252123
1688,10553.10987728797
1689,10221.392313319593
1690,10693.088253510861
1691,7421.140453894378
1692,7373.438361905403
1693,9994.488621035802
1694,8208.809045640062
1695,7807.5152718778045
1696,7678.736908261104
1697,7555.2746581279725
1698,7225.355436668333
1699,8067.9622267258765
1700,7575.80804911182
1701,7820.641866276835
1702,10267.287036232445
1703,10055.389663794205
1704,7451.8208329667195
1705,10661.46406106901
1706,10189.429503613006
1707,7731.941090601765
1708,7941.5053753520115
1709,7325.098712620929
1710,7778.772734505791
1711,7925.115155777459
1712,7662.666743349048
1713,8173.766039938338
1714,8185.098145824013
1715,10682.753095521479
1716,10598.825216252324
1717,10549.919747196205
1718,8342.749026458507
1719,10643.2215764123
1720,7442.739138016256
1721,7743.547568845555
1722,7329.689769503781
1723,10445.779509538683
1724,10778.449953522586
1725,10264.948062385776
1726,8093.004957308037
1727,10842.508776257471
1728,7498.931067598356
1729,10568.138414785293
1730,10220.343740531109
1731,7473.000992281273
1732,10726.773072631659
1733,8144.331090794013
1734,11029.46514794317
1735,7933.1763788636235
1736,10840.80618371465
1737,7487.0295480583545
1738,8241.949144621269
1739,10766.626336883879
1740,7459.732976699336
1741,10521.709757842596
1742,8136.466497649644
1743,7903.717331775374
1744,8387.906891428776
1745,10513.284126032964
1746,10634.108310515127
1747,7651.560397977889
1748,7635.686134295964
1749,10559.21859667554
1750,7710.467626013402
1751,10782.479423175155
1752,10462.367411153302
1753,10329.687107664666
1754,10509.445033602015
1755,7614.140003199667
1756,7775.737332602189
1757,10836.69907684668
1758,10322.12241497429
1759,10621.445477277364
1760,10245.811990414879
1761,7921.559723307868
1762,8075.196142421706
1763,10283.027450399286
1764,7548.277143514721
1765,10454.494132895927
1766,7591.410742972517
1767,10588.18464657755
1768,11105.404528560879
1769,10342.020588627252
1770,8185.536614340581
1771,10275.596049988846
1772,7691.028007408199
1773,7949.568985781231
1774,10551.907065351055
1775,7834.9898937567505
1776,7851.8346680350105
1777,8033.44336479891
1778,11039.870503895123
1779,10396.950066385043
1780,7660.603787276601
1781,10965.31813154011
1782,7390.383123430023
1783,10642.438683875298
1784,8064.423313068805
1785,10931.105316818035
1786,7757.071447309298
1787,7827.168801567222
1788,8105.0026687129775
1789,7898.790121258934
1790,10418.428097999364
1791,11106.325512487001
1792,10679.45647793048
1793,7997.242226599245
1794,7804.509050958893
1795,7963.839504037022
1796,10211.228541578697
1797,7513.990850335521
1798,10659.481309387174
1799,7754.183176585143
1800,10926.00891672525
1801,10263.73906733379
1802,10123.735790790843
1803,7451.916184615905
1804,10787.425174583286
1805,10434.303668889332
1806,7835.031806659389
1807,7614.081984236706
1808,10556.81276173663
1809,7930.871692988631
1810,10358.719976208838
1811,7759.942192411753
1812,10703.287956495396
1813,10215.523449914746
1814,8152.629166233457
1815,10404.119769681509
1816,10539.215983649741
1817,10430.963643808016
1818,10453.964768880993
1819,10510.227346007925
1820,7753.973435460245
1821,7962.562578231121
1822,10413.775634081414
1823,8284.99257461148
1824,10271.352169193711
1825,7640.267073888396
1826,10369.926622232995
1827,10440.019590588137
1828,7683.453454519036
1829,10475.093105438422
1830,7721.778653240951
1831,7947.967716710654
1832,7913.017416546512
1833,7977.842831580206
1834,11112.011372914221
1835,11054.392496403972
1836,8077.194571786921
1837,10372.691708139471
1838,7784.374842996844
1839,10403.79303455744
1840,10187.929890628953
1841,7937.2402252899865
1842,10882.845823925634
1843,8175.364157707699
1844,8171.7761025085865
1845,10389.272652820402
1846,8141.419646425457
1847,7477.597293221221
1848,10652.949550461772
1849,10654.703782287968
1850,7667.267897960821
1851,8210.913119451761
1852,8134.033187518781
1853,7980.7695636819735
1854,10380.782578979484
1855,10753.306400900583
1856,11019.555198841072
1857,8149.763921770208
1858,10158.076338349198
1859,8290.064618616387
1860,8036.257438896587
1861,7730.201215338135
1862,8117.774529954902
1863,10837.518288667668
1864,7591.830877043732
1865,7883.873644548832
1866,8034.2775151973865
1867,8140.471159168432
1868,8224.876512002591
1869,7904.2166828705485
1870,7739.2862349325205
1871,8072.197728953342
1872,8040.132045473964
1873,7838.531812095876
1874,10545.387219860719
1875,8015.057966328042
1876,7879.860495489504
1877,10765.57063890764
1878,8027.081029393251
1879,8288.72647533535
1880,7586.190498875884
1881,7723.4369399674215
1882,7985.08296408702
1883,10395.013465574764
1884,7582.984761487232
1885,7972.494306507102
1886,7440.95948644081
1887,7624.18283400686
1888,7705.006520564327
1889,10403.037430678365
1890,10123.40121482199
1891,7434.097962201104
1892,10496.150090158248
1893,7916.707162510187
1894,8026.141151991544
1895,8152.489485880179
1896,10736.45275172498
1897,10374.578245359085
1898,10124.378144148603
1899,10035.86311289245
1900,7845.090501255766
1901,10669.473055336546
1902,8199.717954841622
1903,10482.29606185401
1904,8143.834934496942
1905,8041.527698780649
1906,10341.903614146211
1907,7474.977641387981
1908,10825.10044378945
1909,10303.913841671505
1910,7312.464694340215
1911,7300.812773927227
1912,10723.45200321773
1913,10182.098929264283
1914,10045.108765717814
1915,7774.948876653581
1916,10120.098017834245
1917,10046.940591169021
1918,10578.262290888162
1919,10824.482982249057
1920,10525.990786444696
1921,10949.275018922814
1922,10884.807131298841
1923,7603.189512980501
1924,10659.230649087922
1925,10679.264089187198
1926,7832.755976049435
1927,7612.771804111032
1928,10781.799208218792
1929,7933.912439423439
1930,7872.486212656227
1931,7589.6941983679035
1932,7594.5057917274
1933,7504.662381261473
1934,7302.243603217396
1935,7382.417124925224
1936,7297.152877390528
1937,10215.011868494466
1938,7699.388462054024
1939,10443.078170863715
1940,10162.748668264778
1941,10608.883606859865
1942,10210.692772068654
1943,7734.0465865396
1944,8062.868514435132
1945,7275.50366733465
1946,7849.520656461138
1947,7773.118173927061
1948,7173.1476896839185
1949,7137.719592610558
1950,10454.351479621731
1951,10044.140298681936
1952,10095.04868343571
1953,10220.551742330015
1954,7679.1602849231695
1955,10443.602455541515
1956,7870.869687856142
1957,10624.944901297524
1958,10461.311039242473
1959,10382.312898002108
1960,7219.374058563602
1961,7888.8803737425305
1962,7165.068043263197
1963,10255.978435180048
1964,10394.935914392081
1965,7412.391720401966
1966,7547.456830319023
1967,7770.167241477576
1968,7154.239755115267
1969,9713.034045035007
1970,7081.696171680007
1971,9602.93923747637
1972,6819.242090840899
1973,10225.393873467794
1974,10131.960069445211
1975,7026.296288317746
1976,7023.464299824379
1977,7517.868013936208
1978,6980.308725640621
1979,6911.696592293095
1980,9709.386767938358
1981,7355.329786938269
1982,7071.2178931163835
1983,7473.846171153532
1984,7624.064333333476
1985,7217.218422858741
1986,9663.08246758055
1987,10232.492831595628
1988,10006.407110751386
1989,10189.751259457318
1990,10329.041984045087
1991,7105.193727988496
1992,10291.940041413172
1993,9504.143168050103
1994,10073.310835716546
1995,9416.394161567312
1996,9683.701410327809
1997,7398.483930252433
1998,10066.240985785613
1999,7551.455191485333
2000,7153.6501993436195
2001,7595.511403990691
2002,9714.321305080544
2003,10030.079513857325
2004,9470.771332755416
2005,9592.798220717854
2006,9493.665472612705
2007,9726.582917899595
2008,9403.206633922504
2009,9941.704201844459
2010,9745.665087503254
2011,6919.274399179239
2012,9797.277592954957
2013,9625.846695951936
2014,9787.344825315573
2015,9382.888663360898
2016,6673.544481895262
2017,9395.013432602496
2018,7194.61057981521
2019,9754.562498107827
2020,7123.744673399092
2021,9559.906631380845
2022,9252.79997406812
2023,6604.942503593563
2024,9117.704153541905
2025,9503.343737003648
2026,9748.613017347363
2027,7161.286550990374
2028,9640.67923198246
2029,9134.648813554797
2030,7170.416594145881
2031,7254.934082065376
2032,9302.273916389928
2033,9342.212531027157
2034,6450.931796097852
2035,8870.888777565897
2036,7056.829185925805
2037,6446.334366280265
2038,6548.446262193053
2039,8877.283014146822
2040,6432.305849347537
2041,6927.698474409788
2042,8969.740782465195
2043,6537.998310454918
2044,6365.816524112216
2045,8867.468940311735
2046,8666.597629566584
2047,8606.696109025894
2048,6343.844819934841
2049,8520.706865149843
2050,8714.99998380042
2051,6349.228932045282
2052,6574.677734086471
2053,9217.632980338793
2054,8583.280375379809
2055,8501.784041379447
2056,6702.60421796787
2057,8558.334064204804
2058,6158.114905892825
2059,8491.186500191105
2060,8677.934292658829
2061,8927.394506137889
2062,8833.280245535332
2063,8470.89012956568
2064,6428.314850822437
2065,8846.0151406698
2066,8565.015411376911
2067,8164.799008916811
2068,8802.867801496903
2069,8798.982421933397
2070,8313.854123460382
2071,5904.961381151542
2072,5850.533277842338
2073,8493.904719370468
2074,6188.391693642152
2075,8092.8318579276065
2076,8591.310535781733
2077,8243.6141398648
2078,6124.960289973587
2079,6400.97140984128
2080,5917.438333639984
2081,6002.121605813975
2082,6339.788371622189
2083,8504.590186703019
2084,6059.024254144193
2085,7969.512166171291
2086,6042.460068558423
2087,8225.65717534706
2088,6191.165249304888
2089,5872.061421289578
2090,5806.561779976938
2091,7563.200042421894
2092,7839.318442113699
2093,7954.404776233051
2094,7915.835762563847
2095,7647.716372022237
2096,5519.625211679149
2097,7852.047946128227
2098,7730.008911959288
2099,5906.755147211347
2100,7858.159007527783
2101,5811.047697729287
2102,5512.31171584546
2103,7884.918968911999
2104,5538.328218650715
2105,6973.695426151461
2106,5452.7437611673
2107,5438.252391116851
2108,7590.533425316535
2109,5609.434547731342
2110,5501.507394183741
2111,7543.238191610556
2112,7064.66777546237
2113,7456.691941042582
2114,5397.4083532648765
2115,7212.700608206294
2116,7271.534252971157
2117,7597.158947770161
2118,5348.265144457143
2119,6944.210456249858
2120,5382.82622890968
2121,5287.769399952259
2122,5437.678688299617
2123,5094.488890216946
2124,7238.630400405468
2125,7208.0331836058485
2126,6941.044429139971
2127,5036.911566343928
2128,5130.595512601375
2129,7088.130276332661
2130,6556.172502559387
2131,6645.342805180175
2132,5084.748144113971
2133,6717.964889049989
2134,6895.862193905189
2135,6491.052392236349
2136,6570.372380836009
2137,5081.883021619495
2138,6453.72205094803
2139,4962.613272313913
2140,5116.475975006943
2141,6224.8571872639295
2142,4606.404481165059
2143,6312.860401066926
2144,4642.125426222955
2145,4698.598635747981
2146,6476.673786503729
2147,4872.238070646171
2148,4697.763244442413
2149,6509.316528081783
2150,6696.924098200267
2151,6205.984802358351
2152,4607.925319461447
2153,4242.211622597891
2154,4506.308250524341
2155,6403.766495721074
2156,4709.113384807942
2157,5931.454883129258
2158,4731.162259970125
2159,5998.709708648102
2160,4240.192217256273
2161,4281.592777302562
2162,4544.354832612423
2163,4114.955966384224
2164,5938.842144837004
2165,5892.965831719777
2166,4397.5801763042955
2167,4005.101321379818
2168,4045.1146955951945
2169,5484.4918990138885
2170,5711.40428480224
2171,5364.375559864738
2172,5365.415064550667
2173,3777.7593795887824
2174,3986.1578574252526
2175,5203.606921109999
2176,4050.4783028295537
2177,3870.1153209549607
2178,4073.850895362414
2179,3996.1050349575053
2180,3973.8509634181305
2181,5323.2288243793655
2182,5256.157057369821
2183,5103.6295391720505
2184,4958.583746208219
2185,4897.759025975917
2186,4813.415036910554
2187,4718.759452770623
2188,3548.297188354366
2189,3578.4947337666035
2190,4991.109879309132
2191,5071.77759698361
2192,5060.770491840732
2193,4679.484574213534
2194,4687.214392088195
2195,3350.095816000711
2196,4521.418639035863
2197,4732.4837558777945
2198,4841.074377144932
2199,4385.198513010892
2200,3155.218214099425
2201,4489.562243558225
2202,3184.110596697422
2203,3104.9566462294847
2204,4234.148082539355
2205,4303.67886795452
2206,4386.117229731133
2207,3236.4305007221797
2208,3369.967723226833
2209,3152.421256581042
2210,3922.700690383482
2211,3938.588815953762
2212,3088.2646828485276
2213,2822.2824953969935
2214,4043.2797070818224
2215,2757.1307340310946
2216,2905.045383861986
2217,2589.2688208428535
2218,2960.250993223021
2219,3088.2728266303075
2220,3977.4879984807562
2221,2663.810799807809
2222,3749.282307524594
2223,3764.218883085315
2224,3601.5945346912295
2225,3597.3314863578667
2226,3410.3936203635476
2227,2581.0060089087115
2228,3386.101208648671
2229,2412.9760372778874
2230,3366.429709997668
2231,3359.1916351284117
2232,2279.002327682529
2233,2189.4847109765187
2234,2112.082265480967
2235,3095.2691845855397
2236,2319.678950430353
2237,3229.2481889801456
2238,2317.76912226476
2239,2394.2356578122694
2240,3039.0906081929197
2241,3208.196249431369
2242,3315.553456051438
2243,3276.899122049932
2244,2245.2637344343234
2245,3211.889491868003
2246,3025.4965851485867
2247,2092.78913991783
2248,2871.0715220463785
2249,2041.180847306109
2250,1957.6676539040184
2251,1944.6429063232379
2252,2600.582945201519
2253,2536.019955831888
2254,2492.6125025752945
2255,1751.0544919511992
2256,2014.2152850549273
2257,2747.9455824602637
2258,1867.8242300527454
2259,1601.2602047610276
2260,2117.720859399572
2261,1695.273628630434
2262,1851.4437033718477
2263,1898.602598039619
2264,1962.9601978184448
2265,2362.229079689124
2266,2266.5723416988726
2267,1616.6330983069413
2268,1670.3983935338285
2269,1698.6909135061967
2270,1401.1383765775934
2271,1545.6341253016408
2272,1472.526124829438
2273,1619.5313669923714
2274,1739.5896214647642
2275,1872.358689541837
2276,1813.7851004929544
2277,1735.3457488147046
2278,1614.028503156919
2279,1327.7666607702547
2280,1527.7263705047487
2281,1930.5752631571972
2282,1291.5477000512305
2283,1731.7734417517945
2284,1694.1926742826931
2285,1425.8136113047397
2286,969.1191968400765
2287,947.5003286321199
2288,1370.5674276736866
2289,1329.0466965586252
2290,786.1569253000067
2291,880.9364120775123
2292,1025.3526018890054
2293,1386.4556807529314
2294,1247.3795101274952
2295,884.2678347321719
2296,1405.5747480852908
2297,1056.0872405982761
2298,1066.6809879301416
2299,923.4047792383889
2300,1067.3309416386082
